time,mv
00:00.000000,-0.01
00:00.003910,-0.011
00:00.007820,-0.011
00:00.011730,-0.01
00:00.015640,-0.01
00:00.019550,-0.009000000000000001
00:00.023460,-0.009000000000000001
00:00.027370,-0.01
00:00.031280,-0.011
00:00.035190,-0.011
00:00.039100,-0.011
00:00.043010,-0.011
00:00.046920,-0.009000000000000001
00:00.050830,-0.009000000000000001
00:00.054740,-0.01
00:00.058650,-0.01
00:00.062560,-0.011
00:00.066470,-0.01
00:00.070380,-0.009000000000000001
00:00.074290,-0.01
00:00.078200,-0.01
00:00.082110,-0.01
00:00.086020,-0.009000000000000001
00:00.089930,-0.008
00:00.093840,-0.009000000000000001
00:00.097750,-0.009000000000000001
00:00.101660,-0.007
00:00.105570,-0.006
00:00.109480,-0.005
00:00.113390,-0.004
00:00.117300,-0.003
00:00.121210,-0.002
00:00.125120,0.0
00:00.129030,0.001
00:00.132940,0.001
00:00.136850,0.001
00:00.140760,0.001
00:00.144670,0.003
00:00.148580,0.005
00:00.152490,0.006
00:00.156400,0.008
00:00.160310,0.008
00:00.164220,0.008
00:00.168130,0.007
00:00.172040,0.004
00:00.175950,0.001
00:00.179860,-0.001
00:00.183770,-0.003
00:00.187680,-0.005
00:00.191590,-0.006
00:00.195500,-0.006
00:00.199410,-0.008
00:00.203320,-0.01
00:00.207230,-0.011
00:00.211140,-0.011
00:00.215050,-0.011
00:00.218960,-0.01
00:00.222870,-0.011
00:00.226780,-0.011
00:00.230690,-0.012
00:00.234600,-0.012
00:00.238510,-0.012
00:00.242420,-0.012
00:00.246330,-0.012
00:00.250240,-0.013000000000000001
00:00.254150,-0.012
00:00.258060,-0.012
00:00.261970,-0.011
00:00.265880,-0.011
00:00.269790,-0.011
00:00.273700,-0.009000000000000001
00:00.277610,-0.006
00:00.281520,0.0
00:00.285430,0.012
00:00.289340,0.031
00:00.293250,0.061
00:00.297160,0.10300000000000001
00:00.301070,0.14100000000000001
00:00.304980,0.158
00:00.308890,0.147
00:00.312800,0.106
00:00.316710,0.045
00:00.320620,-0.02
00:00.324530,-0.062
00:00.328440,-0.07
00:00.332350,-0.065
00:00.336260,-0.056
00:00.340170,-0.044
00:00.344080,-0.033
00:00.347990,-0.028
00:00.351900,-0.024
00:00.355810,-0.02
00:00.359720,-0.016
00:00.363630,-0.013000000000000001
00:00.367540,-0.01
00:00.371450,-0.009000000000000001
00:00.375360,-0.008
00:00.379270,-0.007
00:00.383180,-0.006
00:00.387090,-0.005
00:00.391000,-0.005
00:00.394910,-0.005
00:00.398820,-0.004
00:00.402730,-0.004
00:00.406640,-0.003
00:00.410550,-0.003
00:00.414460,-0.002
00:00.418370,-0.001
00:00.422280,0.0
00:00.426190,0.001
00:00.430100,0.002
00:00.434010,0.002
00:00.437920,0.003
00:00.441830,0.005
00:00.445740,0.007
00:00.449650,0.007
00:00.453560,0.009000000000000001
00:00.457470,0.01
00:00.461380,0.01
00:00.465290,0.01
00:00.469200,0.012
00:00.473110,0.015
00:00.477020,0.016
00:00.480930,0.018000000000000002
00:00.484840,0.021
00:00.488750,0.023
00:00.492660,0.024
00:00.496570,0.026000000000000002
00:00.500480,0.027
00:00.504390,0.03
00:00.508300,0.034
00:00.512210,0.035
00:00.516120,0.036000000000000004
00:00.520030,0.037
00:00.523940,0.039
00:00.527850,0.04
00:00.531760,0.042
00:00.535670,0.042
00:00.539580,0.042
00:00.543490,0.041
00:00.547400,0.042
00:00.551310,0.043000000000000003
00:00.555220,0.042
00:00.559130,0.042
00:00.563040,0.043000000000000003
00:00.566950,0.042
00:00.570860,0.042
00:00.574770,0.041
00:00.578680,0.038
00:00.582590,0.036000000000000004
00:00.586500,0.035
00:00.590410,0.034
00:00.594320,0.03
00:00.598230,0.027
00:00.602140,0.026000000000000002
00:00.606050,0.025
00:00.609960,0.022
00:00.613870,0.02
00:00.617780,0.018000000000000002
00:00.621690,0.016
00:00.625600,0.013000000000000001
00:00.629510,0.012
00:00.633420,0.01
00:00.637330,0.008
00:00.641240,0.007
00:00.645150,0.005
00:00.649060,0.005
00:00.652970,0.003
00:00.656880,0.001
00:00.660790,0.001
00:00.664700,0.0
00:00.668610,0.0
00:00.672520,0.0
00:00.676430,-0.001
00:00.680340,-0.002
00:00.684250,-0.001
00:00.688160,0.0
00:00.692070,-0.001
00:00.695980,-0.001
00:00.699890,-0.001
00:00.703800,0.0
00:00.707710,0.0
00:00.711620,0.0
00:00.715530,-0.001
00:00.719440,-0.001
00:00.723350,0.0
00:00.727260,0.001
00:00.731170,0.001
00:00.735080,0.002
00:00.738990,0.002
00:00.742900,0.003
00:00.746810,0.002
00:00.750720,0.002
00:00.754630,0.002
00:00.758540,0.003
00:00.762450,0.003
00:00.766360,0.003
00:00.770270,0.002
00:00.774180,0.002
00:00.778090,0.001
00:00.782000,0.002
00:00.785910,0.001
00:00.789820,0.001
00:00.793730,0.002
00:00.797640,0.002
00:00.801550,0.001
00:00.805460,0.001
00:00.809370,0.0
00:00.813280,0.0
00:00.817190,0.0
00:00.821100,-0.001
00:00.825010,-0.002
00:00.828920,-0.002
00:00.832830,-0.002
00:00.836740,-0.002
00:00.840650,-0.002
00:00.844560,-0.002
00:00.848470,-0.002
00:00.852380,-0.003
00:00.856290,-0.003
00:00.860200,-0.003
00:00.864110,-0.004
00:00.868020,-0.004
00:00.871930,-0.005
00:00.875840,-0.006
00:00.879750,-0.005
00:00.883660,-0.005
00:00.887570,-0.005
00:00.891480,-0.006
00:00.895390,-0.005
00:00.899300,-0.004
00:00.903210,-0.005
00:00.907120,-0.006
00:00.911030,-0.006
00:00.914940,-0.006
00:00.918850,-0.006
00:00.922760,-0.006
00:00.926670,-0.006
00:00.930580,-0.007
00:00.934490,-0.006
00:00.938400,-0.006
00:00.942310,-0.007
00:00.946220,-0.007
00:00.950130,-0.008
00:00.954040,-0.008
00:00.957950,-0.007
00:00.961860,-0.007
00:00.965770,-0.007
00:00.969680,-0.007
00:00.973590,-0.008
00:00.977500,-0.008
00:00.981410,-0.008
00:00.985320,-0.008
00:00.989230,-0.008
00:00.993140,-0.008
00:00.997050,-0.008
00:01.000960,-0.008
00:01.004870,-0.007
00:01.008780,-0.008
00:01.012690,-0.009000000000000001
00:01.016600,-0.008
00:01.020510,-0.008
00:01.024420,-0.008
00:01.028330,-0.007
00:01.032240,-0.008
00:01.036150,-0.008
00:01.040060,-0.008
00:01.043970,-0.007
00:01.047880,-0.007
00:01.051790,-0.008
00:01.055700,-0.007
00:01.059610,-0.007
00:01.063520,-0.008
00:01.067430,-0.009000000000000001
00:01.071340,-0.01
00:01.075250,-0.009000000000000001
00:01.079160,-0.008
00:01.083070,-0.008
00:01.086980,-0.008
00:01.090890,-0.008
00:01.094800,-0.009000000000000001
00:01.098710,-0.008
00:01.102620,-0.009000000000000001
00:01.106530,-0.008
00:01.110440,-0.007
00:01.114350,-0.007
00:01.118260,-0.007
00:01.122170,-0.008
00:01.126080,-0.009000000000000001
00:01.129990,-0.007
00:01.133900,-0.006
00:01.137810,-0.005
00:01.141720,-0.004
00:01.145630,-0.003
00:01.149540,-0.003
00:01.153450,-0.003
00:01.157360,-0.003
00:01.161270,-0.002
00:01.165180,0.0
00:01.169090,0.002
00:01.173000,0.003
00:01.176910,0.004
00:01.180820,0.007
00:01.184730,0.009000000000000001
00:01.188640,0.007
00:01.192550,0.006
00:01.196460,0.006
00:01.200370,0.005
00:01.204280,0.005
00:01.208190,0.004
00:01.212100,0.004
00:01.216010,0.004
00:01.219920,0.001
00:01.223830,0.0
00:01.227740,-0.001
00:01.231650,-0.003
00:01.235560,-0.005
00:01.239470,-0.006
00:01.243380,-0.007
00:01.247290,-0.01
00:01.251200,-0.011
00:01.255110,-0.011
00:01.259020,-0.01
00:01.262930,-0.01
00:01.266840,-0.01
00:01.270750,-0.012
00:01.274660,-0.013000000000000001
00:01.278570,-0.013000000000000001
00:01.282480,-0.013000000000000001
00:01.286390,-0.012
00:01.290300,-0.012
00:01.294210,-0.012
00:01.298120,-0.012
00:01.302030,-0.012
00:01.305940,-0.012
00:01.309850,-0.012
00:01.313760,-0.012
00:01.317670,-0.009000000000000001
00:01.321580,0.004
00:01.325490,0.018000000000000002
00:01.329400,0.039
00:01.333310,0.07
00:01.337220,0.114
00:01.341130,0.156
00:01.345040,0.177
00:01.348950,0.166
00:01.352860,0.11900000000000001
00:01.356770,0.052000000000000005
00:01.360680,-0.016
00:01.364590,-0.059000000000000004
00:01.368500,-0.069
00:01.372410,-0.06
00:01.376320,-0.046
00:01.380230,-0.034
00:01.384140,-0.028
00:01.388050,-0.025
00:01.391960,-0.022
00:01.395870,-0.018000000000000002
00:01.399780,-0.014
00:01.403690,-0.011
00:01.407600,-0.009000000000000001
00:01.411510,-0.008
00:01.415420,-0.007
00:01.419330,-0.007
00:01.423240,-0.005
00:01.427150,-0.005
00:01.431060,-0.004
00:01.434970,-0.004
00:01.438880,-0.002
00:01.442790,-0.002
00:01.446700,0.0
00:01.450610,0.0
00:01.454520,0.0
00:01.458430,0.0
00:01.462340,0.0
00:01.466250,0.002
00:01.470160,0.003
00:01.474070,0.004
00:01.477980,0.005
00:01.481890,0.006
00:01.485800,0.007
00:01.489710,0.007
00:01.493620,0.007
00:01.497530,0.009000000000000001
00:01.501440,0.01
00:01.505350,0.012
00:01.509260,0.014
00:01.513170,0.016
00:01.517080,0.017
00:01.520990,0.019
00:01.524900,0.021
00:01.528810,0.023
00:01.532720,0.026000000000000002
00:01.536630,0.027
00:01.540540,0.029
00:01.544450,0.033
00:01.548360,0.035
00:01.552270,0.038
00:01.556180,0.038
00:01.560090,0.04
00:01.564000,0.041
00:01.567910,0.042
00:01.571820,0.043000000000000003
00:01.575730,0.045
00:01.579640,0.045
00:01.583550,0.046
00:01.587460,0.046
00:01.591370,0.046
00:01.595280,0.046
00:01.599190,0.047
00:01.603100,0.047
00:01.607010,0.046
00:01.610920,0.045
00:01.614830,0.043000000000000003
00:01.618740,0.042
00:01.622650,0.04
00:01.626560,0.038
00:01.630470,0.036000000000000004
00:01.634380,0.033
00:01.638290,0.03
00:01.642200,0.028
00:01.646110,0.025
00:01.650020,0.021
00:01.653930,0.019
00:01.657840,0.017
00:01.661750,0.014
00:01.665660,0.012
00:01.669570,0.01
00:01.673480,0.007
00:01.677390,0.006
00:01.681300,0.005
00:01.685210,0.003
00:01.689120,0.001
00:01.693030,0.0
00:01.696940,-0.002
00:01.700850,-0.002
00:01.704760,-0.002
00:01.708670,-0.002
00:01.712580,-0.003
00:01.716490,-0.003
00:01.720400,-0.002
00:01.724310,-0.003
00:01.728220,-0.004
00:01.732130,-0.004
00:01.736040,-0.004
00:01.739950,-0.004
00:01.743860,-0.005
00:01.747770,-0.004
00:01.751680,-0.002
00:01.755590,-0.003
00:01.759500,-0.004
00:01.763410,-0.004
00:01.767320,-0.004
00:01.771230,-0.003
00:01.775140,-0.002
00:01.779050,-0.002
00:01.782960,-0.002
00:01.786870,-0.003
00:01.790780,-0.003
00:01.794690,-0.002
00:01.798600,-0.003
00:01.802510,-0.004
00:01.806420,-0.005
00:01.810330,-0.004
00:01.814240,-0.004
00:01.818150,-0.004
00:01.822060,-0.004
00:01.825970,-0.003
00:01.829880,-0.004
00:01.833790,-0.004
00:01.837700,-0.004
00:01.841610,-0.004
00:01.845520,-0.006
00:01.849430,-0.006
00:01.853340,-0.006
00:01.857250,-0.006
00:01.861160,-0.006
00:01.865070,-0.004
00:01.868980,-0.003
00:01.872890,-0.004
00:01.876800,-0.005
00:01.880710,-0.004
00:01.884620,-0.005
00:01.888530,-0.006
00:01.892440,-0.006
00:01.896350,-0.007
00:01.900260,-0.008
00:01.904170,-0.008
00:01.908080,-0.008
00:01.911990,-0.009000000000000001
00:01.915900,-0.009000000000000001
00:01.919810,-0.008
00:01.923720,-0.005
00:01.927630,-0.001
00:01.931540,0.008
00:01.935450,0.029
00:01.939360,0.06
00:01.943270,0.10300000000000001
00:01.947180,0.151
00:01.951090,0.186
00:01.955000,0.192
00:01.958910,0.161
00:01.962820,0.10200000000000001
00:01.966730,0.03
00:01.970640,-0.037
00:01.974550,-0.069
00:01.978460,-0.067
00:01.982370,-0.052000000000000005
00:01.986280,-0.036000000000000004
00:01.990190,-0.026000000000000002
00:01.994100,-0.022
00:01.998010,-0.019
00:02.001920,-0.017
00:02.005830,-0.014
00:02.009740,-0.009000000000000001
00:02.013650,-0.005
00:02.017560,-0.004
00:02.021470,-0.004
00:02.025380,-0.003
00:02.029290,-0.002
00:02.033200,-0.001
00:02.037110,-0.002
00:02.041020,0.0
00:02.044930,0.0
00:02.048840,0.001
00:02.052750,0.002
00:02.056660,0.0
00:02.060570,0.001
00:02.064480,0.001
00:02.068390,0.002
00:02.072300,0.004
00:02.076210,0.004
00:02.080120,0.005
00:02.084030,0.005
00:02.087940,0.005
00:02.091850,0.006
00:02.095760,0.008
00:02.099670,0.008
00:02.103580,0.008
00:02.107490,0.01
00:02.111400,0.012
00:02.115310,0.014
00:02.119220,0.015
00:02.123130,0.017
00:02.127040,0.019
00:02.130950,0.021
00:02.134860,0.022
00:02.138770,0.026000000000000002
00:02.142680,0.029
00:02.146590,0.032
00:02.150500,0.034
00:02.154410,0.035
00:02.158320,0.038
00:02.162230,0.039
00:02.166140,0.04
00:02.170050,0.041
00:02.173960,0.042
00:02.177870,0.042
00:02.181780,0.042
00:02.185690,0.042
00:02.189600,0.042
00:02.193510,0.042
00:02.197420,0.042
00:02.201330,0.041
00:02.205240,0.04
00:02.209150,0.04
00:02.213060,0.039
00:02.216970,0.038
00:02.220880,0.036000000000000004
00:02.224790,0.034
00:02.228700,0.031
00:02.232610,0.028
00:02.236520,0.025
00:02.240430,0.023
00:02.244340,0.021
00:02.248250,0.018000000000000002
00:02.252160,0.014
00:02.256070,0.011
00:02.259980,0.009000000000000001
00:02.263890,0.005
00:02.267800,0.003
00:02.271710,0.002
00:02.275620,-0.001
00:02.279530,-0.002
00:02.283440,-0.002
00:02.287350,-0.003
00:02.291260,-0.004
00:02.295170,-0.006
00:02.299080,-0.007
00:02.302990,-0.007
00:02.306900,-0.007
00:02.310810,-0.008
00:02.314720,-0.008
00:02.318630,-0.008
00:02.322540,-0.007
00:02.326450,-0.007
00:02.330360,-0.007
00:02.334270,-0.007
00:02.338180,-0.008
00:02.342090,-0.008
00:02.346000,-0.008
00:02.349910,-0.008
00:02.353820,-0.008
00:02.357730,-0.007
00:02.361640,-0.006
00:02.365550,-0.006
00:02.369460,-0.006
00:02.373370,-0.007
00:02.377280,-0.006
00:02.381190,-0.006
00:02.385100,-0.007
00:02.389010,-0.006
00:02.392920,-0.005
00:02.396830,-0.005
00:02.400740,-0.006
00:02.404650,-0.006
00:02.408560,-0.005
00:02.412470,-0.006
00:02.416380,-0.005
00:02.420290,-0.006
00:02.424200,-0.007
00:02.428110,-0.007
00:02.432020,-0.007
00:02.435930,-0.007
00:02.439840,-0.007
00:02.443750,-0.008
00:02.447660,-0.008
00:02.451570,-0.008
00:02.455480,-0.009000000000000001
00:02.459390,-0.008
00:02.463300,-0.009000000000000001
00:02.467210,-0.01
00:02.471120,-0.01
00:02.475030,-0.01
00:02.478940,-0.011
00:02.482850,-0.012
00:02.486760,-0.011
00:02.490670,-0.011
00:02.494580,-0.011
00:02.498490,-0.01
00:02.502400,-0.011
00:02.506310,-0.011
00:02.510220,-0.012
00:02.514130,-0.013000000000000001
00:02.518040,-0.012
00:02.521950,-0.011
00:02.525860,-0.011
00:02.529770,-0.012
00:02.533680,-0.013000000000000001
00:02.537590,-0.012
00:02.541500,-0.012
00:02.545410,-0.012
00:02.549320,-0.012
00:02.553230,-0.012
00:02.557140,-0.013000000000000001
00:02.561050,-0.012
00:02.564960,-0.012
00:02.568870,-0.013000000000000001
00:02.572780,-0.013000000000000001
00:02.576690,-0.012
00:02.580600,-0.012
00:02.584510,-0.012
00:02.588420,-0.013000000000000001
00:02.592330,-0.013000000000000001
00:02.596240,-0.013000000000000001
00:02.600150,-0.012
00:02.604060,-0.012
00:02.607970,-0.012
00:02.611880,-0.013000000000000001
00:02.615790,-0.013000000000000001
00:02.619700,-0.014
00:02.623610,-0.015
00:02.627520,-0.014
00:02.631430,-0.013000000000000001
00:02.635340,-0.014
00:02.639250,-0.014
00:02.643160,-0.014
00:02.647070,-0.014
00:02.650980,-0.014
00:02.654890,-0.014
00:02.658800,-0.014
00:02.662710,-0.014
00:02.666620,-0.014
00:02.670530,-0.014
00:02.674440,-0.014
00:02.678350,-0.013000000000000001
00:02.682260,-0.014
00:02.686170,-0.014
00:02.690080,-0.014
00:02.693990,-0.014
00:02.697900,-0.013000000000000001
00:02.701810,-0.014
00:02.705720,-0.015
00:02.709630,-0.015
00:02.713540,-0.015
00:02.717450,-0.015
00:02.721360,-0.015
00:02.725270,-0.015
00:02.729180,-0.014
00:02.733090,-0.014
00:02.737000,-0.013000000000000001
00:02.740910,-0.012
00:02.744820,-0.012
00:02.748730,-0.013000000000000001
00:02.752640,-0.013000000000000001
00:02.756550,-0.012
00:02.760460,-0.014
00:02.764370,-0.014
00:02.768280,-0.014
00:02.772190,-0.014
00:02.776100,-0.013000000000000001
00:02.780010,-0.013000000000000001
00:02.783920,-0.013000000000000001
00:02.787830,-0.013000000000000001
00:02.791740,-0.012
00:02.795650,-0.012
00:02.799560,-0.013000000000000001
00:02.803470,-0.013000000000000001
00:02.807380,-0.013000000000000001
00:02.811290,-0.013000000000000001
00:02.815200,-0.013000000000000001
00:02.819110,-0.013000000000000001
00:02.823020,-0.012
00:02.826930,-0.013000000000000001
00:02.830840,-0.013000000000000001
00:02.834750,-0.013000000000000001
00:02.838660,-0.012
00:02.842570,-0.013000000000000001
00:02.846480,-0.012
00:02.850390,-0.011
00:02.854300,-0.013000000000000001
00:02.858210,-0.014
00:02.862120,-0.013000000000000001
00:02.866030,-0.013000000000000001
00:02.869940,-0.014
00:02.873850,-0.013000000000000001
00:02.877760,-0.012
00:02.881670,-0.012
00:02.885580,-0.013000000000000001
00:02.889490,-0.014
00:02.893400,-0.013000000000000001
00:02.897310,-0.013000000000000001
00:02.901220,-0.012
00:02.905130,-0.012
00:02.909040,-0.012
00:02.912950,-0.013000000000000001
00:02.916860,-0.013000000000000001
00:02.920770,-0.012
00:02.924680,-0.012
00:02.928590,-0.012
00:02.932500,-0.012
00:02.936410,-0.012
00:02.940320,-0.012
00:02.944230,-0.012
00:02.948140,-0.012
00:02.952050,-0.011
00:02.955960,-0.012
00:02.959870,-0.012
00:02.963780,-0.013000000000000001
00:02.967690,-0.013000000000000001
00:02.971600,-0.013000000000000001
00:02.975510,-0.013000000000000001
00:02.979420,-0.01
00:02.983330,-0.01
00:02.987240,-0.01
00:02.991150,-0.01
00:02.995060,-0.011
00:02.998970,-0.01
00:03.002880,-0.01
00:03.006790,-0.011
00:03.010700,-0.012
00:03.014610,-0.012
00:03.018520,-0.012
00:03.022430,-0.011
00:03.026340,-0.01
00:03.030250,-0.01
00:03.034160,-0.01
00:03.038070,-0.01
00:03.041980,-0.011
00:03.045890,-0.011
00:03.049800,-0.01
00:03.053710,-0.01
00:03.057620,-0.01
00:03.061530,-0.011
00:03.065440,-0.011
00:03.069350,-0.011
00:03.073260,-0.01
00:03.077170,-0.01
00:03.081080,-0.01
00:03.084990,-0.01
00:03.088900,-0.01
00:03.092810,-0.01
00:03.096720,-0.01
00:03.100630,-0.011
00:03.104540,-0.01
00:03.108450,-0.01
00:03.112360,-0.011
00:03.116270,-0.011
00:03.120180,-0.011
00:03.124090,-0.01
00:03.128000,-0.011
00:03.131910,-0.012
00:03.135820,-0.011
00:03.139730,-0.011
00:03.143640,-0.011
00:03.147550,-0.01
00:03.151460,-0.01
00:03.155370,-0.01
00:03.159280,-0.01
00:03.163190,-0.01
00:03.167100,-0.01
00:03.171010,-0.011
00:03.174920,-0.011
00:03.178830,-0.01
00:03.182740,-0.011
00:03.186650,-0.011
00:03.190560,-0.009000000000000001
00:03.194470,-0.006
00:03.198380,-0.005
00:03.202290,-0.005
00:03.206200,-0.003
00:03.210110,-0.002
00:03.214020,-0.002
00:03.217930,-0.001
00:03.221840,0.001
00:03.225750,0.001
00:03.229660,0.002
00:03.233570,0.005
00:03.237480,0.008
00:03.241390,0.008
00:03.245300,0.006
00:03.249210,0.004
00:03.253120,0.001
00:03.257030,-0.001
00:03.260940,0.004
00:03.264850,0.015
00:03.268760,0.033
00:03.272670,0.06
00:03.276580,0.093
00:03.280490,0.127
00:03.284400,0.154
00:03.288310,0.167
00:03.292220,0.168
00:03.296130,0.158
00:03.300040,0.14100000000000001
00:03.303950,0.122
00:03.307860,0.097
00:03.311770,0.067
00:03.315680,0.037
00:03.319590,0.01
00:03.323500,-0.008
00:03.327410,-0.02
00:03.331320,-0.029
00:03.335230,-0.037
00:03.339140,-0.041
00:03.343050,-0.042
00:03.346960,-0.041
00:03.350870,-0.039
00:03.354780,-0.037
00:03.358690,-0.032
00:03.362600,-0.027
00:03.366510,-0.023
00:03.370420,-0.019
00:03.374330,-0.019
00:03.378240,-0.018000000000000002
00:03.382150,-0.017
00:03.386060,-0.016
00:03.389970,-0.014
00:03.393880,-0.013000000000000001
00:03.397790,-0.014
00:03.401700,-0.014
00:03.405610,-0.014
00:03.409520,-0.014
00:03.413430,-0.014
00:03.417340,-0.014
00:03.421250,-0.014
00:03.425160,-0.013000000000000001
00:03.429070,-0.012
00:03.432980,-0.012
00:03.436890,-0.012
00:03.440800,-0.012
00:03.444710,-0.011
00:03.448620,-0.011
00:03.452530,-0.01
00:03.456440,-0.01
00:03.460350,-0.01
00:03.464260,-0.01
00:03.468170,-0.009000000000000001
00:03.472080,-0.007
00:03.475990,-0.006
00:03.479900,-0.005
00:03.483810,-0.004
00:03.487720,-0.003
00:03.491630,-0.003
00:03.495540,0.0
00:03.499450,0.001
00:03.503360,0.002
00:03.507270,0.002
00:03.511180,0.002
00:03.515090,0.004
00:03.519000,0.005
00:03.522910,0.006
00:03.526820,0.007
00:03.530730,0.008
00:03.534640,0.009000000000000001
00:03.538550,0.008
00:03.542460,0.01
00:03.546370,0.012
00:03.550280,0.012
00:03.554190,0.014
00:03.558100,0.015
00:03.562010,0.016
00:03.565920,0.017
00:03.569830,0.019
00:03.573740,0.02
00:03.577650,0.021
00:03.581560,0.022
00:03.585470,0.022
00:03.589380,0.023
00:03.593290,0.022
00:03.597200,0.021
00:03.601110,0.021
00:03.605020,0.019
00:03.608930,0.018000000000000002
00:03.612840,0.017
00:03.616750,0.016
00:03.620660,0.015
00:03.624570,0.013000000000000001
00:03.628480,0.012
00:03.632390,0.012
00:03.636300,0.011
00:03.640210,0.009000000000000001
00:03.644120,0.009000000000000001
00:03.648030,0.007
00:03.651940,0.005
00:03.655850,0.006
00:03.659760,0.005
00:03.663670,0.005
00:03.667580,0.005
00:03.671490,0.005
00:03.675400,0.005
00:03.679310,0.005
00:03.683220,0.005
00:03.687130,0.004
00:03.691040,0.003
00:03.694950,0.003
00:03.698860,0.004
00:03.702770,0.004
00:03.706680,0.003
00:03.710590,0.003
00:03.714500,0.003
00:03.718410,0.002
00:03.722320,0.002
00:03.726230,0.004
00:03.730140,0.003
00:03.734050,0.002
00:03.737960,0.002
00:03.741870,0.001
00:03.745780,0.001
00:03.749690,0.002
00:03.753600,0.002
00:03.757510,0.002
00:03.761420,0.002
00:03.765330,0.0
00:03.769240,0.0
00:03.773150,0.0
00:03.777060,0.0
00:03.780970,-0.001
00:03.784880,-0.002
00:03.788790,-0.002
00:03.792700,-0.003
00:03.796610,-0.004
00:03.800520,-0.003
00:03.804430,-0.004
00:03.808340,-0.004
00:03.812250,-0.004
00:03.816160,-0.004
00:03.820070,-0.005
00:03.823980,-0.005
00:03.827890,-0.006
00:03.831800,-0.006
00:03.835710,-0.006
00:03.839620,-0.007
00:03.843530,-0.008
00:03.847440,-0.009000000000000001
00:03.851350,-0.008
00:03.855260,-0.008
00:03.859170,-0.008
00:03.863080,-0.007
00:03.866990,-0.007
00:03.870900,-0.006
00:03.874810,-0.007
00:03.878720,-0.007
00:03.882630,-0.008
00:03.886540,-0.009000000000000001
00:03.890450,-0.01
00:03.894360,-0.01
00:03.898270,-0.009000000000000001
00:03.902180,-0.01
00:03.906090,-0.009000000000000001
00:03.910000,-0.009000000000000001
00:03.913910,-0.008
00:03.917820,-0.008
00:03.921730,-0.008
00:03.925640,-0.008
00:03.929550,-0.01
00:03.933460,-0.011
00:03.937370,-0.011
00:03.941280,-0.009000000000000001
00:03.945190,-0.008
00:03.949100,-0.008
00:03.953010,-0.009000000000000001
00:03.956920,-0.009000000000000001
00:03.960830,-0.009000000000000001
00:03.964740,-0.01
00:03.968650,-0.01
00:03.972560,-0.01
00:03.976470,-0.01
00:03.980380,-0.011
00:03.984290,-0.011
00:03.988200,-0.01
00:03.992110,-0.009000000000000001
00:03.996020,-0.01
00:03.999930,-0.011
00:04.003840,-0.011
00:04.007750,-0.01
00:04.011660,-0.011
00:04.015570,-0.012
00:04.019480,-0.012
00:04.023390,-0.011
00:04.027300,-0.011
00:04.031210,-0.011
00:04.035120,-0.01
00:04.039030,-0.009000000000000001
00:04.042940,-0.01
00:04.046850,-0.009000000000000001
00:04.050760,-0.008
00:04.054670,-0.011
00:04.058580,-0.011
00:04.062490,-0.01
00:04.066400,-0.011
00:04.070310,-0.011
00:04.074220,-0.011
00:04.078130,-0.012
00:04.082040,-0.012
00:04.085950,-0.011
00:04.089860,-0.01
00:04.093770,-0.009000000000000001
00:04.097680,-0.011
00:04.101590,-0.01
00:04.105500,-0.01
00:04.109410,-0.011
00:04.113320,-0.011
00:04.117230,-0.009000000000000001
00:04.121140,-0.009000000000000001
00:04.125050,-0.009000000000000001
00:04.128960,-0.009000000000000001
00:04.132870,-0.009000000000000001
00:04.136780,-0.008
00:04.140690,-0.008
00:04.144600,-0.007
00:04.148510,-0.005
00:04.152420,-0.004
00:04.156330,-0.004
00:04.160240,-0.005
00:04.164150,-0.006
00:04.168060,-0.003
00:04.171970,-0.001
00:04.175880,0.0
00:04.179790,0.0
00:04.183700,0.002
00:04.187610,0.006
00:04.191520,0.005
00:04.195430,0.004
00:04.199340,0.004
00:04.203250,0.004
00:04.207160,0.003
00:04.211070,0.001
00:04.214980,0.0
00:04.218890,-0.001
00:04.222800,0.0
00:04.226710,0.0
00:04.230620,-0.003
00:04.234530,-0.004
00:04.238440,-0.005
00:04.242350,-0.007
00:04.246260,-0.01
00:04.250170,-0.012
00:04.254080,-0.013000000000000001
00:04.257990,-0.012
00:04.261900,-0.011
00:04.265810,-0.012
00:04.269720,-0.013000000000000001
00:04.273630,-0.013000000000000001
00:04.277540,-0.013000000000000001
00:04.281450,-0.013000000000000001
00:04.285360,-0.014
00:04.289270,-0.014
00:04.293180,-0.013000000000000001
00:04.297090,-0.013000000000000001
00:04.301000,-0.013000000000000001
00:04.304910,-0.014
00:04.308820,-0.012
00:04.312730,-0.013000000000000001
00:04.316640,-0.012
00:04.320550,-0.009000000000000001
00:04.324460,-0.004
00:04.328370,0.003
00:04.332280,0.019
00:04.336190,0.043000000000000003
00:04.340100,0.078
00:04.344010,0.11800000000000001
00:04.347920,0.147
00:04.351830,0.15
00:04.355740,0.124
00:04.359650,0.074
00:04.363560,0.012
00:04.367470,-0.042
00:04.371380,-0.065
00:04.375290,-0.066
00:04.379200,-0.059000000000000004
00:04.383110,-0.049
00:04.387020,-0.038
00:04.390930,-0.03
00:04.394840,-0.026000000000000002
00:04.398750,-0.023
00:04.402660,-0.019
00:04.406570,-0.015
00:04.410480,-0.01
00:04.414390,-0.009000000000000001
00:04.418300,-0.007
00:04.422210,-0.007
00:04.426120,-0.006
00:04.430030,-0.004
00:04.433940,-0.004
00:04.437850,-0.002
00:04.441760,-0.002
00:04.445670,-0.002
00:04.449580,-0.002
00:04.453490,-0.001
00:04.457400,-0.001
00:04.461310,0.0
00:04.465220,0.002
00:04.469130,0.002
00:04.473040,0.002
00:04.476950,0.003
00:04.480860,0.003
00:04.484770,0.004
00:04.488680,0.005
00:04.492590,0.006
00:04.496500,0.008
00:04.500410,0.009000000000000001
00:04.504320,0.01
00:04.508230,0.012
00:04.512140,0.014
00:04.516050,0.014
00:04.519960,0.014
00:04.523870,0.015
00:04.527780,0.017
00:04.531690,0.019
00:04.535600,0.021
00:04.539510,0.024
00:04.543420,0.026000000000000002
00:04.547330,0.028
00:04.551240,0.029
00:04.555150,0.032
00:04.559060,0.034
00:04.562970,0.035
00:04.566880,0.037
00:04.570790,0.038
00:04.574700,0.039
00:04.578610,0.039
00:04.582520,0.041
00:04.586430,0.042
00:04.590340,0.042
00:04.594250,0.041
00:04.598160,0.04
00:04.602070,0.039
00:04.605980,0.04
00:04.609890,0.04
00:04.613800,0.038
00:04.617710,0.037
00:04.621620,0.036000000000000004
00:04.625530,0.035
00:04.629440,0.033
00:04.633350,0.032
00:04.637260,0.03
00:04.641170,0.027
00:04.645080,0.025
00:04.648990,0.023
00:04.652900,0.02
00:04.656810,0.017
00:04.660720,0.016
00:04.664630,0.015
00:04.668540,0.013000000000000001
00:04.672450,0.01
00:04.676360,0.008
00:04.680270,0.005
00:04.684180,0.004
00:04.688090,0.003
00:04.692000,0.002
00:04.695910,0.002
00:04.699820,0.001
00:04.703730,-0.001
00:04.707640,-0.002
00:04.711550,-0.003
00:04.715460,-0.003
00:04.719370,-0.003
00:04.723280,-0.004
00:04.727190,-0.004
00:04.731100,-0.003
00:04.735010,-0.002
00:04.738920,-0.003
00:04.742830,-0.004
00:04.746740,-0.004
00:04.750650,-0.004
00:04.754560,-0.004
00:04.758470,-0.003
00:04.762380,-0.003
00:04.766290,-0.003
00:04.770200,-0.003
00:04.774110,-0.002
00:04.778020,-0.002
00:04.781930,-0.001
00:04.785840,0.0
00:04.789750,0.0
00:04.793660,0.0
00:04.797570,0.0
00:04.801480,0.0
00:04.805390,0.001
00:04.809300,0.0
00:04.813210,-0.001
00:04.817120,-0.001
00:04.821030,0.0
00:04.824940,0.0
00:04.828850,0.0
00:04.832760,0.0
00:04.836670,0.0
00:04.840580,-0.001
00:04.844490,-0.001
00:04.848400,-0.001
00:04.852310,-0.001
00:04.856220,-0.001
00:04.860130,-0.001
00:04.864040,-0.001
00:04.867950,-0.002
00:04.871860,-0.003
00:04.875770,-0.003
00:04.879680,-0.003
00:04.883590,-0.004
00:04.887500,-0.005
00:04.891410,-0.005
00:04.895320,-0.005
00:04.899230,-0.004
00:04.903140,-0.005
00:04.907050,-0.005
00:04.910960,-0.005
00:04.914870,-0.006
00:04.918780,-0.007
00:04.922690,-0.007
00:04.926600,-0.006
00:04.930510,-0.006
00:04.934420,-0.008
00:04.938330,-0.007
00:04.942240,-0.008
00:04.946150,-0.008
00:04.950060,-0.007
00:04.953970,-0.007
00:04.957880,-0.007
00:04.961790,-0.007
00:04.965700,-0.008
00:04.969610,-0.008
00:04.973520,-0.008
00:04.977430,-0.008
00:04.981340,-0.009000000000000001
00:04.985250,-0.009000000000000001
00:04.989160,-0.008
00:04.993070,-0.008
00:04.996980,-0.008
00:05.000890,-0.009000000000000001
00:05.004800,-0.01
00:05.008710,-0.008
00:05.012620,-0.007
00:05.016530,-0.006
00:05.020440,-0.004
00:05.024350,-0.003
00:05.028260,-0.002
00:05.032170,-0.002
00:05.036080,-0.002
00:05.039990,-0.001
00:05.043900,0.0
00:05.047810,0.001
00:05.051720,0.002
00:05.055630,0.003
00:05.059540,0.005
00:05.063450,0.005
00:05.067360,0.005
00:05.071270,0.005
00:05.075180,0.004
00:05.079090,0.004
00:05.083000,0.003
00:05.086910,0.002
00:05.090820,0.001
00:05.094730,0.0
00:05.098640,-0.001
00:05.102550,-0.002
00:05.106460,-0.005
00:05.110370,-0.005
00:05.114280,-0.006
00:05.118190,-0.009000000000000001
00:05.122100,-0.01
00:05.126010,-0.011
00:05.129920,-0.013000000000000001
00:05.133830,-0.014
00:05.137740,-0.014
00:05.141650,-0.013000000000000001
00:05.145560,-0.013000000000000001
00:05.149470,-0.013000000000000001
00:05.153380,-0.015
00:05.157290,-0.015
00:05.161200,-0.015
00:05.165110,-0.013000000000000001
00:05.169020,-0.013000000000000001
00:05.172930,-0.013000000000000001
00:05.176840,-0.014
00:05.180750,-0.015
00:05.184660,-0.014
00:05.188570,-0.013000000000000001
00:05.192480,-0.012
00:05.196390,-0.01
00:05.200300,-0.005
00:05.204210,0.003
00:05.208120,0.019
00:05.212030,0.042
00:05.215940,0.075
00:05.219850,0.117
00:05.223760,0.157
00:05.227670,0.17500000000000002
00:05.231580,0.158
00:05.235490,0.107
00:05.239400,0.041
00:05.243310,-0.023
00:05.247220,-0.062
00:05.251130,-0.069
00:05.255040,-0.061
00:05.258950,-0.046
00:05.262860,-0.035
00:05.266770,-0.028
00:05.270680,-0.025
00:05.274590,-0.023
00:05.278500,-0.02
00:05.282410,-0.016
00:05.286320,-0.013000000000000001
00:05.290230,-0.011
00:05.294140,-0.01
00:05.298050,-0.008
00:05.301960,-0.006
00:05.305870,-0.006
00:05.309780,-0.006
00:05.313690,-0.006
00:05.317600,-0.005
00:05.321510,-0.005
00:05.325420,-0.005
00:05.329330,-0.004
00:05.333240,-0.003
00:05.337150,-0.002
00:05.341060,-0.001
00:05.344970,-0.001
00:05.348880,0.0
00:05.352790,0.001
00:05.356700,0.003
00:05.360610,0.002
00:05.364520,0.002
00:05.368430,0.003
00:05.372340,0.005
00:05.376250,0.006
00:05.380160,0.008
00:05.384070,0.01
00:05.387980,0.01
00:05.391890,0.012
00:05.395800,0.017
00:05.399710,0.019
00:05.403620,0.021
00:05.407530,0.023
00:05.411440,0.025
00:05.415350,0.027
00:05.419260,0.029
00:05.423170,0.031
00:05.427080,0.035
00:05.430990,0.036000000000000004
00:05.434900,0.038
00:05.438810,0.039
00:05.442720,0.041
00:05.446630,0.042
00:05.450540,0.043000000000000003
00:05.454450,0.043000000000000003
00:05.458360,0.044
00:05.462270,0.045
00:05.466180,0.045
00:05.470090,0.046
00:05.474000,0.046
00:05.477910,0.046
00:05.481820,0.045
00:05.485730,0.044
00:05.489640,0.044
00:05.493550,0.041
00:05.497460,0.041
00:05.501370,0.039
00:05.505280,0.037
00:05.509190,0.034
00:05.513100,0.032
00:05.517010,0.029
00:05.520920,0.026000000000000002
00:05.524830,0.023
00:05.528740,0.019
00:05.532650,0.016
00:05.536560,0.014
00:05.540470,0.011
00:05.544380,0.009000000000000001
00:05.548290,0.006
00:05.552200,0.004
00:05.556110,0.003
00:05.560020,0.001
00:05.563930,-0.001
00:05.567840,-0.002
00:05.571750,-0.003
00:05.575660,-0.004
00:05.579570,-0.006
00:05.583480,-0.005
00:05.587390,-0.005
00:05.591300,-0.005
00:05.595210,-0.006
00:05.599120,-0.007
00:05.603030,-0.007
00:05.606940,-0.008
00:05.610850,-0.007
00:05.614760,-0.007
00:05.618670,-0.007
00:05.622580,-0.007
00:05.626490,-0.006
00:05.630400,-0.007
00:05.634310,-0.007
00:05.638220,-0.007
00:05.642130,-0.006
00:05.646040,-0.006
00:05.649950,-0.006
00:05.653860,-0.006
00:05.657770,-0.005
00:05.661680,-0.004
00:05.665590,-0.003
00:05.669500,-0.004
00:05.673410,-0.004
00:05.677320,-0.004
00:05.681230,-0.003
00:05.685140,-0.002
00:05.689050,-0.002
00:05.692960,-0.003
00:05.696870,-0.002
00:05.700780,-0.002
00:05.704690,-0.003
00:05.708600,-0.002
00:05.712510,-0.001
00:05.716420,-0.003
00:05.720330,-0.004
00:05.724240,-0.003
00:05.728150,-0.004
00:05.732060,-0.004
00:05.735970,-0.004
00:05.739880,-0.005
00:05.743790,-0.005
00:05.747700,-0.005
00:05.751610,-0.005
00:05.755520,-0.006
00:05.759430,-0.006
00:05.763340,-0.007
00:05.767250,-0.008
00:05.771160,-0.008
00:05.775070,-0.007
00:05.778980,-0.008
00:05.782890,-0.009000000000000001
00:05.786800,-0.009000000000000001
00:05.790710,-0.008
00:05.794620,-0.008
00:05.798530,-0.008
00:05.802440,-0.009000000000000001
00:05.806350,-0.01
00:05.810260,-0.011
00:05.814170,-0.011
00:05.818080,-0.011
00:05.821990,-0.01
00:05.825900,-0.011
00:05.829810,-0.011
00:05.833720,-0.012
00:05.837630,-0.012
00:05.841540,-0.013000000000000001
00:05.845450,-0.012
00:05.849360,-0.011
00:05.853270,-0.011
00:05.857180,-0.011
00:05.861090,-0.012
00:05.865000,-0.012
00:05.868910,-0.013000000000000001
00:05.872820,-0.012
00:05.876730,-0.013000000000000001
00:05.880640,-0.013000000000000001
00:05.884550,-0.012
00:05.888460,-0.011
00:05.892370,-0.01
00:05.896280,-0.009000000000000001
00:05.900190,-0.008
00:05.904100,-0.007
00:05.908010,-0.006
00:05.911920,-0.005
00:05.915830,-0.004
00:05.919740,-0.003
00:05.923650,-0.003
00:05.927560,-0.002
00:05.931470,-0.002
00:05.935380,0.001
00:05.939290,0.002
00:05.943200,0.002
00:05.947110,0.003
00:05.951020,0.003
00:05.954930,0.001
00:05.958840,0.0
00:05.962750,0.0
00:05.966660,-0.002
00:05.970570,-0.003
00:05.974480,-0.003
00:05.978390,-0.005
00:05.982300,-0.006
00:05.986210,-0.008
00:05.990120,-0.01
00:05.994030,-0.012
00:05.997940,-0.014
00:06.001850,-0.015
00:06.005760,-0.016
00:06.009670,-0.017
00:06.013580,-0.017
00:06.017490,-0.017
00:06.021400,-0.017
00:06.025310,-0.017
00:06.029220,-0.017
00:06.033130,-0.018000000000000002
00:06.037040,-0.018000000000000002
00:06.040950,-0.017
00:06.044860,-0.016
00:06.048770,-0.017
00:06.052680,-0.018000000000000002
00:06.056590,-0.017
00:06.060500,-0.017
00:06.064410,-0.016
00:06.068320,-0.016
00:06.072230,-0.015
00:06.076140,-0.013000000000000001
00:06.080050,-0.008
00:06.083960,0.003
00:06.087870,0.023
00:06.091780,0.049
00:06.095690,0.085
00:06.099600,0.131
00:06.103510,0.167
00:06.107420,0.179
00:06.111330,0.154
00:06.115240,0.097
00:06.119150,0.026000000000000002
00:06.123060,-0.039
00:06.126970,-0.07100000000000001
00:06.130880,-0.073
00:06.134790,-0.062
00:06.138700,-0.048
00:06.142610,-0.037
00:06.146520,-0.032
00:06.150430,-0.029
00:06.154340,-0.027
00:06.158250,-0.024
00:06.162160,-0.019
00:06.166070,-0.016
00:06.169980,-0.015
00:06.173890,-0.013000000000000001
00:06.177800,-0.011
00:06.181710,-0.011
00:06.185620,-0.011
00:06.189530,-0.011
00:06.193440,-0.011
00:06.197350,-0.01
00:06.201260,-0.009000000000000001
00:06.205170,-0.008
00:06.209080,-0.008
00:06.212990,-0.007
00:06.216900,-0.005
00:06.220810,-0.005
00:06.224720,-0.005
00:06.228630,-0.003
00:06.232540,-0.002
00:06.236450,-0.001
00:06.240360,-0.001
00:06.244270,0.0
00:06.248180,0.003
00:06.252090,0.004
00:06.256000,0.005
00:06.259910,0.005
00:06.263820,0.007
00:06.267730,0.009000000000000001
00:06.271640,0.011
00:06.275550,0.014
00:06.279460,0.016
00:06.283370,0.018000000000000002
00:06.287280,0.021
00:06.291190,0.023
00:06.295100,0.025
00:06.299010,0.027
00:06.302920,0.028
00:06.306830,0.03
00:06.310740,0.033
00:06.314650,0.035
00:06.318560,0.038
00:06.322470,0.039
00:06.326380,0.039
00:06.330290,0.041
00:06.334200,0.041
00:06.338110,0.042
00:06.342020,0.043000000000000003
00:06.345930,0.043000000000000003
00:06.349840,0.042
00:06.353750,0.041
00:06.357660,0.041
00:06.361570,0.042
00:06.365480,0.043000000000000003
00:06.369390,0.042
00:06.373300,0.041
00:06.377210,0.039
00:06.381120,0.037
00:06.385030,0.035
00:06.388940,0.033
00:06.392850,0.031
00:06.396760,0.027
00:06.400670,0.024
00:06.404580,0.021
00:06.408490,0.018000000000000002
00:06.412400,0.015
00:06.416310,0.013000000000000001
00:06.420220,0.009000000000000001
00:06.424130,0.006
00:06.428040,0.004
00:06.431950,0.003
00:06.435860,0.001
00:06.439770,-0.001
00:06.443680,-0.002
00:06.447590,-0.004
00:06.451500,-0.005
00:06.455410,-0.007
00:06.459320,-0.007
00:06.463230,-0.007
00:06.467140,-0.008
00:06.471050,-0.009000000000000001
00:06.474960,-0.008
00:06.478870,-0.009000000000000001
00:06.482780,-0.009000000000000001
00:06.486690,-0.01
00:06.490600,-0.01
00:06.494510,-0.009000000000000001
00:06.498420,-0.009000000000000001
00:06.502330,-0.009000000000000001
00:06.506240,-0.008
00:06.510150,-0.008
00:06.514060,-0.009000000000000001
00:06.517970,-0.009000000000000001
00:06.521880,-0.008
00:06.525790,-0.008
00:06.529700,-0.006
00:06.533610,-0.005
00:06.537520,-0.006
00:06.541430,-0.006
00:06.545340,-0.005
00:06.549250,-0.006
00:06.553160,-0.006
00:06.557070,-0.005
00:06.560980,-0.005
00:06.564890,-0.005
00:06.568800,-0.005
00:06.572710,-0.004
00:06.576620,-0.004
00:06.580530,-0.005
00:06.584440,-0.005
00:06.588350,-0.006
00:06.592260,-0.006
00:06.596170,-0.006
00:06.600080,-0.007
00:06.603990,-0.007
00:06.607900,-0.007
00:06.611810,-0.006
00:06.615720,-0.007
00:06.619630,-0.007
00:06.623540,-0.007
00:06.627450,-0.006
00:06.631360,0.0
00:06.635270,0.011
00:06.639180,0.031
00:06.643090,0.057
00:06.647000,0.09
00:06.650910,0.127
00:06.654820,0.155
00:06.658730,0.17
00:06.662640,0.171
00:06.666550,0.168
00:06.670460,0.157
00:06.674370,0.138
00:06.678280,0.113
00:06.682190,0.085
00:06.686100,0.054
00:06.690010,0.027
00:06.693920,0.006
00:06.697830,-0.007
00:06.701740,-0.016
00:06.705650,-0.023
00:06.709560,-0.029
00:06.713470,-0.033
00:06.717380,-0.031
00:06.721290,-0.03
00:06.725200,-0.028
00:06.729110,-0.022
00:06.733020,-0.017
00:06.736930,-0.014
00:06.740840,-0.015
00:06.744750,-0.016
00:06.748660,-0.017
00:06.752570,-0.017
00:06.756480,-0.017
00:06.760390,-0.016
00:06.764300,-0.015
00:06.768210,-0.016
00:06.772120,-0.017
00:06.776030,-0.017
00:06.779940,-0.016
00:06.783850,-0.016
00:06.787760,-0.017
00:06.791670,-0.016
00:06.795580,-0.016
00:06.799490,-0.015
00:06.803400,-0.016
00:06.807310,-0.015
00:06.811220,-0.014
00:06.815130,-0.014
00:06.819040,-0.014
00:06.822950,-0.013000000000000001
00:06.826860,-0.012
00:06.830770,-0.011
00:06.834680,-0.01
00:06.838590,-0.01
00:06.842500,-0.01
00:06.846410,-0.009000000000000001
00:06.850320,-0.007
00:06.854230,-0.007
00:06.858140,-0.007
00:06.862050,-0.005
00:06.865960,-0.005
00:06.869870,-0.005
00:06.873780,-0.003
00:06.877690,-0.002
00:06.881600,-0.002
00:06.885510,-0.002
00:06.889420,-0.001
00:06.893330,0.0
00:06.897240,0.0
00:06.901150,0.0
00:06.905060,0.0
00:06.908970,0.001
00:06.912880,0.002
00:06.916790,0.004
00:06.920700,0.005
00:06.924610,0.005
00:06.928520,0.007
00:06.932430,0.007
00:06.936340,0.007
00:06.940250,0.007
00:06.944160,0.006
00:06.948070,0.005
00:06.951980,0.004
00:06.955890,0.004
00:06.959800,0.003
00:06.963710,0.003
00:06.967620,0.001
00:06.971530,0.0
00:06.975440,-0.001
00:06.979350,-0.002
00:06.983260,-0.002
00:06.987170,-0.001
00:06.991080,-0.001
00:06.994990,0.002
00:06.998900,0.003
00:07.002810,0.003
00:07.006720,0.005
00:07.010630,0.006
00:07.014540,0.007
00:07.018450,0.008
00:07.022360,0.008
00:07.026270,0.006
00:07.030180,0.005
00:07.034090,0.004
00:07.038000,0.004
00:07.041910,0.004
00:07.045820,0.004
00:07.049730,0.003
00:07.053640,0.001
00:07.057550,0.0
00:07.061460,-0.002
00:07.065370,-0.003
00:07.069280,-0.005
00:07.073190,-0.008
00:07.077100,-0.01
00:07.081010,-0.012
00:07.084920,-0.013000000000000001
00:07.088830,-0.014
00:07.092740,-0.013000000000000001
00:07.096650,-0.012
00:07.100560,-0.014
00:07.104470,-0.015
00:07.108380,-0.015
00:07.112290,-0.015
00:07.116200,-0.016
00:07.120110,-0.016
00:07.124020,-0.016
00:07.127930,-0.018000000000000002
00:07.131840,-0.02
00:07.135750,-0.019
00:07.139660,-0.019
00:07.143570,-0.018000000000000002
00:07.147480,-0.018000000000000002
00:07.151390,-0.019
00:07.155300,-0.019
00:07.159210,-0.019
00:07.163120,-0.019
00:07.167030,-0.019
00:07.170940,-0.019
00:07.174850,-0.019
00:07.178760,-0.019
00:07.182670,-0.016
00:07.186580,-0.013000000000000001
00:07.190490,-0.008
00:07.194400,0.003
00:07.198310,0.024
00:07.202220,0.054
00:07.206130,0.097
00:07.210040,0.145
00:07.213950,0.178
00:07.217860,0.181
00:07.221770,0.145
00:07.225680,0.082
00:07.229590,0.01
00:07.233500,-0.053
00:07.237410,-0.079
00:07.241320,-0.078
00:07.245230,-0.066
00:07.249140,-0.053
00:07.253050,-0.043000000000000003
00:07.256960,-0.035
00:07.260870,-0.031
00:07.264780,-0.028
00:07.268690,-0.025
00:07.272600,-0.021
00:07.276510,-0.019
00:07.280420,-0.017
00:07.284330,-0.016
00:07.288240,-0.016
00:07.292150,-0.016
00:07.296060,-0.014
00:07.299970,-0.014
00:07.303880,-0.013000000000000001
00:07.307790,-0.012
00:07.311700,-0.011
00:07.315610,-0.011
00:07.319520,-0.011
00:07.323430,-0.01
00:07.327340,-0.009000000000000001
00:07.331250,-0.008
00:07.335160,-0.007
00:07.339070,-0.006
00:07.342980,-0.006
00:07.346890,-0.005
00:07.350800,-0.003
00:07.354710,-0.003
00:07.358620,-0.002
00:07.362530,0.0
00:07.366440,0.002
00:07.370350,0.004
00:07.374260,0.004
00:07.378170,0.006
00:07.382080,0.008
00:07.385990,0.01
00:07.389900,0.012
00:07.393810,0.015
00:07.397720,0.017
00:07.401630,0.019
00:07.405540,0.022
00:07.409450,0.023
00:07.413360,0.025
00:07.417270,0.028
00:07.421180,0.029
00:07.425090,0.03
00:07.429000,0.031
00:07.432910,0.031
00:07.436820,0.03
00:07.440730,0.032
00:07.444640,0.033
00:07.448550,0.033
00:07.452460,0.033
00:07.456370,0.034
00:07.460280,0.035
00:07.464190,0.035
00:07.468100,0.034
00:07.472010,0.034
00:07.475920,0.031
00:07.479830,0.03
00:07.483740,0.029
00:07.487650,0.027
00:07.491560,0.024
00:07.495470,0.021
00:07.499380,0.019
00:07.503290,0.018000000000000002
00:07.507200,0.016
00:07.511110,0.011
00:07.515020,0.007
00:07.518930,0.004
00:07.522840,0.003
00:07.526750,0.001
00:07.530660,-0.001
00:07.534570,-0.004
00:07.538480,-0.005
00:07.542390,-0.006
00:07.546300,-0.007
00:07.550210,-0.008
00:07.554120,-0.009000000000000001
00:07.558030,-0.009000000000000001
00:07.561940,-0.009000000000000001
00:07.565850,-0.011
00:07.569760,-0.009000000000000001
00:07.573670,-0.008
00:07.577580,-0.008
00:07.581490,-0.009000000000000001
00:07.585400,-0.009000000000000001
00:07.589310,-0.009000000000000001
00:07.593220,-0.009000000000000001
00:07.597130,-0.01
00:07.601040,-0.009000000000000001
00:07.604950,-0.008
00:07.608860,-0.009000000000000001
00:07.612770,-0.01
00:07.616680,-0.009000000000000001
00:07.620590,-0.01
00:07.624500,-0.011
00:07.628410,-0.011
00:07.632320,-0.011
00:07.636230,-0.013000000000000001
00:07.640140,-0.012
00:07.644050,-0.011
00:07.647960,-0.011
00:07.651870,-0.012
00:07.655780,-0.012
00:07.659690,-0.01
00:07.663600,-0.011
00:07.667510,-0.011
00:07.671420,-0.01
00:07.675330,-0.011
00:07.679240,-0.012
00:07.683150,-0.013000000000000001
00:07.687060,-0.012
00:07.690970,-0.012
00:07.694880,-0.011
00:07.698790,-0.011
00:07.702700,-0.011
00:07.706610,-0.01
00:07.710520,-0.011
00:07.714430,-0.011
00:07.718340,-0.011
00:07.722250,-0.01
00:07.726160,-0.012
00:07.730070,-0.014
00:07.733980,-0.014
00:07.737890,-0.014
00:07.741800,-0.015
00:07.745710,-0.015
00:07.749620,-0.014
00:07.753530,-0.015
00:07.757440,-0.014
00:07.761350,-0.012
00:07.765260,-0.006
00:07.769170,0.0
00:07.773080,0.016
00:07.776990,0.042
00:07.780900,0.079
00:07.784810,0.125
00:07.788720,0.16
00:07.792630,0.168
00:07.796540,0.14400000000000002
00:07.800450,0.091
00:07.804360,0.023
00:07.808270,-0.044
00:07.812180,-0.079
00:07.816090,-0.082
00:07.820000,-0.073
00:07.823910,-0.06
00:07.827820,-0.047
00:07.831730,-0.037
00:07.835640,-0.031
00:07.839550,-0.022
00:07.843460,-0.019
00:07.847370,-0.015
00:07.851280,-0.013000000000000001
00:07.855190,-0.011
00:07.859100,-0.009000000000000001
00:07.863010,-0.009000000000000001
00:07.866920,-0.008
00:07.870830,-0.008
00:07.874740,-0.008
00:07.878650,-0.007
00:07.882560,-0.007
00:07.886470,-0.007
00:07.890380,-0.006
00:07.894290,-0.005
00:07.898200,-0.005
00:07.902110,-0.005
00:07.906020,-0.004
00:07.909930,-0.003
00:07.913840,-0.001
00:07.917750,-0.001
00:07.921660,-0.001
00:07.925570,0.0
00:07.929480,0.001
00:07.933390,0.002
00:07.937300,0.003
00:07.941210,0.004
00:07.945120,0.006
00:07.949030,0.008
00:07.952940,0.009000000000000001
00:07.956850,0.011
00:07.960760,0.013000000000000001
00:07.964670,0.014
00:07.968580,0.016
00:07.972490,0.019
00:07.976400,0.02
00:07.980310,0.021
00:07.984220,0.022
00:07.988130,0.023
00:07.992040,0.024
00:07.995950,0.026000000000000002
00:07.999860,0.028
00:08.003770,0.028
00:08.007680,0.028
00:08.011590,0.029
00:08.015500,0.03
00:08.019410,0.03
00:08.023320,0.03
00:08.027230,0.031
00:08.031140,0.032
00:08.035050,0.031
00:08.038960,0.031
00:08.042870,0.032
00:08.046780,0.031
00:08.050690,0.03
00:08.054600,0.029
00:08.058510,0.028
00:08.062420,0.026000000000000002
00:08.066330,0.024
00:08.070240,0.022
00:08.074150,0.02
00:08.078060,0.018000000000000002
00:08.081970,0.016
00:08.085880,0.012
00:08.089790,0.009000000000000001
00:08.093700,0.007
00:08.097610,0.005
00:08.101520,0.002
00:08.105430,0.0
00:08.109340,-0.001
00:08.113250,-0.003
00:08.117160,-0.005
00:08.121070,-0.007
00:08.124980,-0.007
00:08.128890,-0.008
00:08.132800,-0.008
00:08.136710,-0.009000000000000001
00:08.140620,-0.009000000000000001
00:08.144530,-0.009000000000000001
00:08.148440,-0.011
00:08.152350,-0.011
00:08.156260,-0.009000000000000001
00:08.160170,-0.009000000000000001
00:08.164080,-0.01
00:08.167990,-0.01
00:08.171900,-0.009000000000000001
00:08.175810,-0.008
00:08.179720,-0.008
00:08.183630,-0.009000000000000001
00:08.187540,-0.008
00:08.191450,-0.007
00:08.195360,-0.007
00:08.199270,-0.006
00:08.203180,-0.006
00:08.207090,-0.007
00:08.211000,-0.007
00:08.214910,-0.006
00:08.218820,-0.006
00:08.222730,-0.007
00:08.226640,-0.006
00:08.230550,-0.006
00:08.234460,-0.007
00:08.238370,-0.008
00:08.242280,-0.007
00:08.246190,-0.007
00:08.250100,-0.007
00:08.254010,-0.007
00:08.257920,-0.007
00:08.261830,-0.008
00:08.265740,-0.008
00:08.269650,-0.009000000000000001
00:08.273560,-0.01
00:08.277470,-0.01
00:08.281380,-0.009000000000000001
00:08.285290,-0.01
00:08.289200,-0.01
00:08.293110,-0.012
00:08.297020,-0.012
00:08.300930,-0.012
00:08.304840,-0.012
00:08.308750,-0.012
00:08.312660,-0.013000000000000001
00:08.316570,-0.013000000000000001
00:08.320480,-0.013000000000000001
00:08.324390,-0.015
00:08.328300,-0.016
00:08.332210,-0.015
00:08.336120,-0.015
00:08.340030,-0.015
00:08.343940,-0.014
00:08.347850,-0.015
00:08.351760,-0.015
00:08.355670,-0.014
00:08.359580,-0.014
00:08.363490,-0.014
00:08.367400,-0.014
00:08.371310,-0.015
00:08.375220,-0.014
00:08.379130,-0.014
00:08.383040,-0.016
00:08.386950,-0.015
00:08.390860,-0.016
00:08.394770,-0.016
00:08.398680,-0.016
00:08.402590,-0.016
00:08.406500,-0.015
00:08.410410,-0.015
00:08.414320,-0.015
00:08.418230,-0.015
00:08.422140,-0.015
00:08.426050,-0.014
00:08.429960,-0.014
00:08.433870,-0.015
00:08.437780,-0.014
00:08.441690,-0.015
00:08.445600,-0.015
00:08.449510,-0.016
00:08.453420,-0.016
00:08.457330,-0.015
00:08.461240,-0.017
00:08.465150,-0.016
00:08.469060,-0.014
00:08.472970,-0.014
00:08.476880,-0.014
00:08.480790,-0.015
00:08.484700,-0.015
00:08.488610,-0.016
00:08.492520,-0.017
00:08.496430,-0.015
00:08.500340,-0.014
00:08.504250,-0.015
00:08.508160,-0.015
00:08.512070,-0.015
00:08.515980,-0.014
00:08.519890,-0.015
00:08.523800,-0.016
00:08.527710,-0.016
00:08.531620,-0.015
00:08.535530,-0.016
00:08.539440,-0.016
00:08.543350,-0.015
00:08.547260,-0.015
00:08.551170,-0.014
00:08.555080,-0.014
00:08.558990,-0.015
00:08.562900,-0.016
00:08.566810,-0.016
00:08.570720,-0.015
00:08.574630,-0.014
00:08.578540,-0.015
00:08.582450,-0.014
00:08.586360,-0.014
00:08.590270,-0.015
00:08.594180,-0.016
00:08.598090,-0.016
00:08.602000,-0.015
00:08.605910,-0.013000000000000001
00:08.609820,-0.014
00:08.613730,-0.014
00:08.617640,-0.013000000000000001
00:08.621550,-0.013000000000000001
00:08.625460,-0.012
00:08.629370,-0.012
00:08.633280,-0.013000000000000001
00:08.637190,-0.013000000000000001
00:08.641100,-0.014
00:08.645010,-0.013000000000000001
00:08.648920,-0.013000000000000001
00:08.652830,-0.014
00:08.656740,-0.015
00:08.660650,-0.013000000000000001
00:08.664560,-0.014
00:08.668470,-0.013000000000000001
00:08.672380,-0.013000000000000001
00:08.676290,-0.013000000000000001
00:08.680200,-0.013000000000000001
00:08.684110,-0.012
00:08.688020,-0.012
00:08.691930,-0.013000000000000001
00:08.695840,-0.013000000000000001
00:08.699750,-0.013000000000000001
00:08.703660,-0.013000000000000001
00:08.707570,-0.012
00:08.711480,-0.012
00:08.715390,-0.013000000000000001
00:08.719300,-0.012
00:08.723210,-0.011
00:08.727120,-0.012
00:08.731030,-0.013000000000000001
00:08.734940,-0.013000000000000001
00:08.738850,-0.012
00:08.742760,-0.013000000000000001
00:08.746670,-0.013000000000000001
00:08.750580,-0.013000000000000001
00:08.754490,-0.013000000000000001
00:08.758400,-0.013000000000000001
00:08.762310,-0.013000000000000001
00:08.766220,-0.013000000000000001
00:08.770130,-0.013000000000000001
00:08.774040,-0.012
00:08.777950,-0.011
00:08.781860,-0.012
00:08.785770,-0.013000000000000001
00:08.789680,-0.013000000000000001
00:08.793590,-0.013000000000000001
00:08.797500,-0.013000000000000001
00:08.801410,-0.012
00:08.805320,-0.012
00:08.809230,-0.013000000000000001
00:08.813140,-0.014
00:08.817050,-0.013000000000000001
00:08.820960,-0.012
00:08.824870,-0.012
00:08.828780,-0.013000000000000001
00:08.832690,-0.013000000000000001
00:08.836600,-0.013000000000000001
00:08.840510,-0.011
00:08.844420,-0.011
00:08.848330,-0.012
00:08.852240,-0.011
00:08.856150,-0.01
00:08.860060,-0.01
00:08.863970,-0.01
00:08.867880,-0.01
00:08.871790,-0.011
00:08.875700,-0.011
00:08.879610,-0.011
00:08.883520,-0.011
00:08.887430,-0.011
00:08.891340,-0.011
00:08.895250,-0.01
00:08.899160,-0.009000000000000001
00:08.903070,-0.01
00:08.906980,-0.01
00:08.910890,-0.011
00:08.914800,-0.01
00:08.918710,-0.009000000000000001
00:08.922620,-0.01
00:08.926530,-0.01
00:08.930440,-0.01
00:08.934350,-0.01
00:08.938260,-0.01
00:08.942170,-0.01
00:08.946080,-0.01
00:08.949990,-0.01
00:08.953900,-0.01
00:08.957810,-0.009000000000000001
00:08.961720,-0.009000000000000001
00:08.965630,-0.01
00:08.969540,-0.01
00:08.973450,-0.009000000000000001
00:08.977360,-0.009000000000000001
00:08.981270,-0.009000000000000001
00:08.985180,-0.009000000000000001
00:08.989090,-0.009000000000000001
00:08.993000,-0.009000000000000001
00:08.996910,-0.009000000000000001
00:09.000820,-0.009000000000000001
00:09.004730,-0.008
00:09.008640,-0.007
00:09.012550,-0.008
00:09.016460,-0.009000000000000001
00:09.020370,-0.009000000000000001
00:09.024280,-0.009000000000000001
00:09.028190,-0.008
00:09.032100,-0.008
00:09.036010,-0.009000000000000001
00:09.039920,-0.009000000000000001
00:09.043830,-0.009000000000000001
00:09.047740,-0.008
00:09.051650,-0.008
00:09.055560,-0.009000000000000001
00:09.059470,-0.008
00:09.063380,-0.008
00:09.067290,-0.007
00:09.071200,-0.007
00:09.075110,-0.006
00:09.079020,-0.004
00:09.082930,-0.002
00:09.086840,-0.001
00:09.090750,0.0
00:09.094660,0.002
00:09.098570,0.002
00:09.102480,0.002
00:09.106390,0.003
00:09.110300,0.003
00:09.114210,0.005
00:09.118120,0.008
00:09.122030,0.008
00:09.125940,0.006
00:09.129850,0.005
00:09.133760,0.003
00:09.137670,0.0
00:09.141580,-0.001
00:09.145490,-0.002
00:09.149400,-0.005
00:09.153310,-0.006
00:09.157220,-0.007
00:09.161130,-0.009000000000000001
00:09.165040,-0.009000000000000001
00:09.168950,-0.01
00:09.172860,-0.011
00:09.176770,-0.011
00:09.180680,-0.011
00:09.184590,-0.011
00:09.188500,-0.011
00:09.192410,-0.01
00:09.196320,-0.01
00:09.200230,-0.01
00:09.204140,-0.011
00:09.208050,-0.011
00:09.211960,-0.01
00:09.215870,-0.01
00:09.219780,-0.011
00:09.223690,-0.011
00:09.227600,-0.011
00:09.231510,-0.008
00:09.235420,-0.003
00:09.239330,0.007
00:09.243240,0.025
00:09.247150,0.05
00:09.251060,0.088
00:09.254970,0.131
00:09.258880,0.159
00:09.262790,0.159
00:09.266700,0.127
00:09.270610,0.07200000000000001
00:09.274520,0.006
00:09.278430,-0.048
00:09.282340,-0.066
00:09.286250,-0.06
00:09.290160,-0.051000000000000004
00:09.294070,-0.04
00:09.297980,-0.031
00:09.301890,-0.026000000000000002
00:09.305800,-0.022
00:09.309710,-0.019
00:09.313620,-0.017
00:09.317530,-0.014
00:09.321440,-0.011
00:09.325350,-0.009000000000000001
00:09.329260,-0.008
00:09.333170,-0.008
00:09.337080,-0.007
00:09.340990,-0.007
00:09.344900,-0.006
00:09.348810,-0.005
00:09.352720,-0.005
00:09.356630,-0.004
00:09.360540,-0.004
00:09.364450,-0.004
00:09.368360,-0.004
00:09.372270,-0.004
00:09.376180,-0.002
00:09.380090,-0.002
00:09.384000,-0.001
00:09.387910,-0.001
00:09.391820,-0.001
00:09.395730,0.002
00:09.399640,0.003
00:09.403550,0.004
00:09.407460,0.004
00:09.411370,0.005
00:09.415280,0.007
00:09.419190,0.008
00:09.423100,0.01
00:09.427010,0.011
00:09.430920,0.013000000000000001
00:09.434830,0.014
00:09.438740,0.016
00:09.442650,0.018000000000000002
00:09.446560,0.019
00:09.450470,0.021
00:09.454380,0.023
00:09.458290,0.025
00:09.462200,0.027
00:09.466110,0.029
00:09.470020,0.031
00:09.473930,0.032
00:09.477840,0.034
00:09.481750,0.036000000000000004
00:09.485660,0.036000000000000004
00:09.489570,0.034
00:09.493480,0.035
00:09.497390,0.037
00:09.501300,0.038
00:09.505210,0.039
00:09.509120,0.04
00:09.513030,0.04
00:09.516940,0.04
00:09.520850,0.039
00:09.524760,0.039
00:09.528670,0.04
00:09.532580,0.041
00:09.536490,0.041
00:09.540400,0.04
00:09.544310,0.04
00:09.548220,0.04
00:09.552130,0.038
00:09.556040,0.037
00:09.559950,0.036000000000000004
00:09.563860,0.035
00:09.567770,0.032
00:09.571680,0.031
00:09.575590,0.029
00:09.579500,0.027
00:09.583410,0.025
00:09.587320,0.023
00:09.591230,0.021
00:09.595140,0.02
00:09.599050,0.019
00:09.602960,0.016
00:09.606870,0.014
00:09.610780,0.013000000000000001
00:09.614690,0.012
00:09.618600,0.011
00:09.622510,0.01
00:09.626420,0.009000000000000001
00:09.630330,0.008
00:09.634240,0.006
00:09.638150,0.006
00:09.642060,0.006
00:09.645970,0.005
00:09.649880,0.005
00:09.653790,0.005
00:09.657700,0.006
00:09.661610,0.006
00:09.665520,0.006
00:09.669430,0.006
00:09.673340,0.005
00:09.677250,0.006
00:09.681160,0.007
00:09.685070,0.008
00:09.688980,0.008
00:09.692890,0.008
00:09.696800,0.008
00:09.700710,0.006
00:09.704620,0.006
00:09.708530,0.007
00:09.712440,0.007
00:09.716350,0.007
00:09.720260,0.007
00:09.724170,0.007
00:09.728080,0.007
00:09.731990,0.008
00:09.735900,0.007
00:09.739810,0.007
00:09.743720,0.007
00:09.747630,0.007
00:09.751540,0.005
00:09.755450,0.005
00:09.759360,0.005
00:09.763270,0.005
00:09.767180,0.003
00:09.771090,0.003
00:09.775000,0.003
00:09.778910,0.003
00:09.782820,0.001
00:09.786730,0.0
00:09.790640,0.005
00:09.794550,0.015
00:09.798460,0.031
00:09.802370,0.051000000000000004
00:09.806280,0.081
00:09.810190,0.12
00:09.814100,0.155
00:09.818010,0.176
00:09.821920,0.186
00:09.825830,0.191
00:09.829740,0.186
00:09.833650,0.171
00:09.837560,0.147
00:09.841470,0.117
00:09.845380,0.082
00:09.849290,0.047
00:09.853200,0.017
00:09.857110,0.002
00:09.861020,-0.009000000000000001
00:09.864930,-0.015
00:09.868840,-0.019
00:09.872750,-0.02
00:09.876660,-0.018000000000000002
00:09.880570,-0.016
00:09.884480,-0.011
00:09.888390,-0.007
00:09.892300,-0.008
00:09.896210,-0.008
00:09.900120,-0.009000000000000001
00:09.904030,-0.011
00:09.907940,-0.011
00:09.911850,-0.011
00:09.915760,-0.011
00:09.919670,-0.011
00:09.923580,-0.01
00:09.927490,-0.011
00:09.931400,-0.011
00:09.935310,-0.011
00:09.939220,-0.011
00:09.943130,-0.011
00:09.947040,-0.011
00:09.950950,-0.012
00:09.954860,-0.012
00:09.958770,-0.012
00:09.962680,-0.012
00:09.966590,-0.011
00:09.970500,-0.011
00:09.974410,-0.011
00:09.978320,-0.01
00:09.982230,-0.01
00:09.986140,-0.01
00:09.990050,-0.009000000000000001
00:09.993960,-0.009000000000000001
00:09.997870,-0.008
00:10.001780,-0.007
00:10.005690,-0.008
00:10.009600,-0.008
00:10.013510,-0.007
00:10.017420,-0.008
00:10.021330,-0.007
00:10.025240,-0.006
00:10.029150,-0.006
00:10.033060,-0.006
00:10.036970,-0.005
00:10.040880,-0.006
00:10.044790,-0.006
00:10.048700,-0.005
00:10.052610,-0.005
00:10.056520,-0.005
00:10.060430,-0.004
00:10.064340,-0.004
00:10.068250,-0.003
00:10.072160,-0.001
00:10.076070,0.0
00:10.079980,0.001
00:10.083890,0.001
00:10.087800,0.002
00:10.091710,0.003
00:10.095620,0.004
00:10.099530,0.005
00:10.103440,0.006
00:10.107350,0.005
00:10.111260,0.006
00:10.115170,0.005
00:10.119080,0.004
00:10.122990,0.003
00:10.126900,0.001
00:10.130810,0.001
00:10.134720,0.001
00:10.138630,-0.001
00:10.142540,-0.002
00:10.146450,-0.003
00:10.150360,-0.003
00:10.154270,-0.004
00:10.158180,-0.004
00:10.162090,-0.003
00:10.166000,-0.002
00:10.169910,-0.001
00:10.173820,-0.001
00:10.177730,0.0
00:10.181640,0.001
00:10.185550,0.003
00:10.189460,0.003
00:10.193370,0.003
00:10.197280,0.005
00:10.201190,0.008
00:10.205100,0.009000000000000001
00:10.209010,0.009000000000000001
00:10.212920,0.01
00:10.216830,0.01
00:10.220740,0.01
00:10.224650,0.009000000000000001
00:10.228560,0.009000000000000001
00:10.232470,0.008
00:10.236380,0.007
00:10.240290,0.006
00:10.244200,0.004
00:10.248110,0.004
00:10.252020,0.003
00:10.255930,0.003
00:10.259840,0.001
00:10.263750,-0.001
00:10.267660,-0.003
00:10.271570,-0.004
00:10.275480,-0.006
00:10.279390,-0.008
00:10.283300,-0.011
00:10.287210,-0.013000000000000001
00:10.291120,-0.014
00:10.295030,-0.013000000000000001
00:10.298940,-0.013000000000000001
00:10.302850,-0.015
00:10.306760,-0.015
00:10.310670,-0.015
00:10.314580,-0.014
00:10.318490,-0.015
00:10.322400,-0.016
00:10.326310,-0.016
00:10.330220,-0.016
00:10.334130,-0.017
00:10.338040,-0.017
00:10.341950,-0.018000000000000002
00:10.345860,-0.018000000000000002
00:10.349770,-0.017
00:10.353680,-0.017
00:10.357590,-0.017
00:10.361500,-0.017
00:10.365410,-0.017
00:10.369320,-0.017
00:10.373230,-0.017
00:10.377140,-0.016
00:10.381050,-0.013000000000000001
00:10.384960,-0.01
00:10.388870,-0.001
00:10.392780,0.014
00:10.396690,0.038
00:10.400600,0.073
00:10.404510,0.12
00:10.408420,0.162
00:10.412330,0.182
00:10.416240,0.169
00:10.420150,0.11900000000000001
00:10.424060,0.051000000000000004
00:10.427970,-0.019
00:10.431880,-0.067
00:10.435790,-0.078
00:10.439700,-0.07
00:10.443610,-0.056
00:10.447520,-0.043000000000000003
00:10.451430,-0.034
00:10.455340,-0.03
00:10.459250,-0.027
00:10.463160,-0.024
00:10.467070,-0.021
00:10.470980,-0.017
00:10.474890,-0.014
00:10.478800,-0.013000000000000001
00:10.482710,-0.012
00:10.486620,-0.013000000000000001
00:10.490530,-0.011
00:10.494440,-0.01
00:10.498350,-0.01
00:10.502260,-0.009000000000000001
00:10.506170,-0.009000000000000001
00:10.510080,-0.009000000000000001
00:10.513990,-0.007
00:10.517900,-0.007
00:10.521810,-0.007
00:10.525720,-0.006
00:10.529630,-0.005
00:10.533540,-0.004
00:10.537450,-0.002
00:10.541360,-0.002
00:10.545270,-0.001
00:10.549180,0.001
00:10.553090,0.002
00:10.557000,0.004
00:10.560910,0.005
00:10.564820,0.006
00:10.568730,0.008
00:10.572640,0.01
00:10.576550,0.012
00:10.580460,0.014
00:10.584370,0.015
00:10.588280,0.016
00:10.592190,0.02
00:10.596100,0.023
00:10.600010,0.024
00:10.603920,0.026000000000000002
00:10.607830,0.028
00:10.611740,0.03
00:10.615650,0.032
00:10.619560,0.034
00:10.623470,0.035
00:10.627380,0.036000000000000004
00:10.631290,0.036000000000000004
00:10.635200,0.038
00:10.639110,0.039
00:10.643020,0.038
00:10.646930,0.039
00:10.650840,0.04
00:10.654750,0.04
00:10.658660,0.04
00:10.662570,0.04
00:10.666480,0.041
00:10.670390,0.04
00:10.674300,0.038
00:10.678210,0.037
00:10.682120,0.035
00:10.686030,0.033
00:10.689940,0.031
00:10.693850,0.028
00:10.697760,0.026000000000000002
00:10.701670,0.023
00:10.705580,0.02
00:10.709490,0.016
00:10.713400,0.014
00:10.717310,0.012
00:10.721220,0.009000000000000001
00:10.725130,0.006
00:10.729040,0.004
00:10.732950,0.002
00:10.736860,0.001
00:10.740770,-0.001
00:10.744680,-0.002
00:10.748590,-0.002
00:10.752500,-0.004
00:10.756410,-0.005
00:10.760320,-0.005
00:10.764230,-0.005
00:10.768140,-0.005
00:10.772050,-0.006
00:10.775960,-0.006
00:10.779870,-0.006
00:10.783780,-0.006
00:10.787690,-0.006
00:10.791600,-0.007
00:10.795510,-0.006
00:10.799420,-0.004
00:10.803330,-0.004
00:10.807240,-0.005
00:10.811150,-0.004
00:10.815060,-0.004
00:10.818970,-0.004
00:10.822880,-0.004
00:10.826790,-0.004
00:10.830700,-0.004
00:10.834610,-0.004
00:10.838520,-0.003
00:10.842430,-0.002
00:10.846340,-0.002
00:10.850250,-0.003
00:10.854160,-0.004
00:10.858070,-0.004
00:10.861980,-0.004
00:10.865890,-0.004
00:10.869800,-0.003
00:10.873710,-0.005
00:10.877620,-0.005
00:10.881530,-0.005
00:10.885440,-0.005
00:10.889350,-0.006
00:10.893260,-0.007
00:10.897170,-0.008
00:10.901080,-0.008
00:10.904990,-0.009000000000000001
00:10.908900,-0.008
00:10.912810,-0.009000000000000001
00:10.916720,-0.01
00:10.920630,-0.01
00:10.924540,-0.011
00:10.928450,-0.01
00:10.932360,-0.01
00:10.936270,-0.012
00:10.940180,-0.013000000000000001
00:10.944090,-0.013000000000000001
00:10.948000,-0.013000000000000001
00:10.951910,-0.012
00:10.955820,-0.012
00:10.959730,-0.014
00:10.963640,-0.015
00:10.967550,-0.014
00:10.971460,-0.013000000000000001
00:10.975370,-0.013000000000000001
00:10.979280,-0.014
00:10.983190,-0.014
00:10.987100,-0.014
00:10.991010,-0.014
00:10.994920,-0.013000000000000001
00:10.998830,-0.014
00:11.002740,-0.015
00:11.006650,-0.014
00:11.010560,-0.014
00:11.014470,-0.014
00:11.018380,-0.015
00:11.022290,-0.016
00:11.026200,-0.014
00:11.030110,-0.013000000000000001
00:11.034020,-0.015
00:11.037930,-0.017
00:11.041840,-0.016
00:11.045750,-0.016
00:11.049660,-0.015
00:11.053570,-0.015
00:11.057480,-0.016
00:11.061390,-0.016
00:11.065300,-0.015
00:11.069210,-0.015
00:11.073120,-0.015
00:11.077030,-0.014
00:11.080940,-0.014
00:11.084850,-0.014
00:11.088760,-0.014
00:11.092670,-0.014
00:11.096580,-0.015
00:11.100490,-0.014
00:11.104400,-0.014
00:11.108310,-0.014
00:11.112220,-0.015
00:11.116130,-0.016
00:11.120040,-0.016
00:11.123950,-0.016
00:11.127860,-0.016
00:11.131770,-0.014
00:11.135680,-0.013000000000000001
00:11.139590,-0.014
00:11.143500,-0.015
00:11.147410,-0.014
00:11.151320,-0.015
00:11.155230,-0.015
00:11.159140,-0.015
00:11.163050,-0.015
00:11.166960,-0.015
00:11.170870,-0.015
00:11.174780,-0.015
00:11.178690,-0.014
00:11.182600,-0.015
00:11.186510,-0.015
00:11.190420,-0.015
00:11.194330,-0.015
00:11.198240,-0.015
00:11.202150,-0.014
00:11.206060,-0.014
00:11.209970,-0.015
00:11.213880,-0.015
00:11.217790,-0.014
00:11.221700,-0.014
00:11.225610,-0.014
00:11.229520,-0.014
00:11.233430,-0.014
00:11.237340,-0.014
00:11.241250,-0.014
00:11.245160,-0.015
00:11.249070,-0.015
00:11.252980,-0.014
00:11.256890,-0.014
00:11.260800,-0.013000000000000001
00:11.264710,-0.012
00:11.268620,-0.011
00:11.272530,-0.01
00:11.276440,-0.008
00:11.280350,-0.008
00:11.284260,-0.008
00:11.288170,-0.006
00:11.292080,-0.005
00:11.295990,-0.005
00:11.299900,-0.004
00:11.303810,-0.001
00:11.307720,0.002
00:11.311630,0.002
00:11.315540,0.001
00:11.319450,0.001
00:11.323360,0.001
00:11.327270,0.001
00:11.331180,0.0
00:11.335090,0.0
00:11.339000,-0.001
00:11.342910,-0.002
00:11.346820,-0.005
00:11.350730,-0.005
00:11.354640,-0.007
00:11.358550,-0.009000000000000001
00:11.362460,-0.009000000000000001
00:11.366370,-0.011
00:11.370280,-0.016
00:11.374190,-0.017
00:11.378100,-0.017
00:11.382010,-0.017
00:11.385920,-0.016
00:11.389830,-0.016
00:11.393740,-0.018000000000000002
00:11.397650,-0.019
00:11.401560,-0.018000000000000002
00:11.405470,-0.018000000000000002
00:11.409380,-0.018000000000000002
00:11.413290,-0.018000000000000002
00:11.417200,-0.018000000000000002
00:11.421110,-0.018000000000000002
00:11.425020,-0.018000000000000002
00:11.428930,-0.017
00:11.432840,-0.018000000000000002
00:11.436750,-0.017
00:11.440660,-0.014
00:11.444570,-0.008
00:11.448480,0.001
00:11.452390,0.017
00:11.456300,0.042
00:11.460210,0.079
00:11.464120,0.127
00:11.468030,0.166
00:11.471940,0.178
00:11.475850,0.152
00:11.479760,0.097
00:11.483670,0.027
00:11.487580,-0.039
00:11.491490,-0.074
00:11.495400,-0.076
00:11.499310,-0.065
00:11.503220,-0.05
00:11.507130,-0.04
00:11.511040,-0.035
00:11.514950,-0.031
00:11.518860,-0.028
00:11.522770,-0.024
00:11.526680,-0.02
00:11.530590,-0.018000000000000002
00:11.534500,-0.016
00:11.538410,-0.014
00:11.542320,-0.013000000000000001
00:11.546230,-0.013000000000000001
00:11.550140,-0.012
00:11.554050,-0.011
00:11.557960,-0.011
00:11.561870,-0.01
00:11.565780,-0.011
00:11.569690,-0.01
00:11.573600,-0.009000000000000001
00:11.577510,-0.009000000000000001
00:11.581420,-0.008
00:11.585330,-0.007
00:11.589240,-0.006
00:11.593150,-0.005
00:11.597060,-0.004
00:11.600970,-0.002
00:11.604880,-0.003
00:11.608790,-0.002
00:11.612700,-0.001
00:11.616610,0.0
00:11.620520,0.001
00:11.624430,0.002
00:11.628340,0.003
00:11.632250,0.004
00:11.636160,0.006
00:11.640070,0.01
00:11.643980,0.011
00:11.647890,0.013000000000000001
00:11.651800,0.014
00:11.655710,0.017
00:11.659620,0.019
00:11.663530,0.021
00:11.667440,0.023
00:11.671350,0.026000000000000002
00:11.675260,0.027
00:11.679170,0.029
00:11.683080,0.032
00:11.686990,0.033
00:11.690900,0.033
00:11.694810,0.032
00:11.698720,0.034
00:11.702630,0.035
00:11.706540,0.035
00:11.710450,0.036000000000000004
00:11.714360,0.037
00:11.718270,0.037
00:11.722180,0.037
00:11.726090,0.038
00:11.730000,0.037
00:11.733910,0.037
00:11.737820,0.038
00:11.741730,0.037
00:11.745640,0.037
00:11.749550,0.036000000000000004
00:11.753460,0.035
00:11.757370,0.034
00:11.761280,0.033
00:11.765190,0.031
00:11.769100,0.029
00:11.773010,0.027
00:11.776920,0.026000000000000002
00:11.780830,0.023
00:11.784740,0.019
00:11.788650,0.017
00:11.792560,0.014
00:11.796470,0.012
00:11.800380,0.009000000000000001
00:11.804290,0.007
00:11.808200,0.005
00:11.812110,0.004
00:11.816020,0.003
00:11.819930,0.002
00:11.823840,0.001
00:11.827750,0.001
00:11.831660,-0.001
00:11.835570,-0.001
00:11.839480,-0.002
00:11.843390,-0.002
00:11.847300,-0.002
00:11.851210,-0.002
00:11.855120,-0.001
00:11.859030,-0.002
00:11.862940,-0.003
00:11.866850,-0.004
00:11.870760,-0.004
00:11.874670,-0.003
00:11.878580,-0.002
00:11.882490,-0.002
00:11.886400,-0.003
00:11.890310,-0.003
00:11.894220,-0.002
00:11.898130,-0.002
00:11.902040,-0.001
00:11.905950,0.0
00:11.909860,0.0
00:11.913770,-0.001
00:11.917680,0.0
00:11.921590,0.0
00:11.925500,-0.001
00:11.929410,0.0
00:11.933320,0.0
00:11.937230,-0.001
00:11.941140,-0.001
00:11.945050,-0.002
00:11.948960,-0.003
00:11.952870,-0.003
00:11.956780,-0.003
00:11.960690,-0.003
00:11.964600,-0.004
00:11.968510,-0.004
00:11.972420,-0.005
00:11.976330,-0.006
00:11.980240,-0.007
00:11.984150,-0.008
00:11.988060,-0.007
00:11.991970,-0.008
00:11.995880,-0.008
00:11.999790,-0.008
00:12.003700,-0.009000000000000001
00:12.007610,-0.011
00:12.011520,-0.01
00:12.015430,-0.01
00:12.019340,-0.01
00:12.023250,-0.01
00:12.027160,-0.011
00:12.031070,-0.012
00:12.034980,-0.012
00:12.038890,-0.011
00:12.042800,-0.012
00:12.046710,-0.013000000000000001
00:12.050620,-0.012
00:12.054530,-0.012
00:12.058440,-0.012
00:12.062350,-0.013000000000000001
00:12.066260,-0.013000000000000001
00:12.070170,-0.013000000000000001
00:12.074080,-0.013000000000000001
00:12.077990,-0.012
00:12.081900,-0.012
00:12.085810,-0.014
00:12.089720,-0.015
00:12.093630,-0.014
00:12.097540,-0.014
00:12.101450,-0.014
00:12.105360,-0.014
00:12.109270,-0.013000000000000001
00:12.113180,-0.012
00:12.117090,-0.012
00:12.121000,-0.014
00:12.124910,-0.014
00:12.128820,-0.013000000000000001
00:12.132730,-0.014
00:12.136640,-0.013000000000000001
00:12.140550,-0.014
00:12.144460,-0.016
00:12.148370,-0.016
00:12.152280,-0.015
00:12.156190,-0.015
00:12.160100,-0.015
00:12.164010,-0.015
00:12.167920,-0.014
00:12.171830,-0.015
00:12.175740,-0.014
00:12.179650,-0.013000000000000001
00:12.183560,-0.013000000000000001
00:12.187470,-0.014
00:12.191380,-0.014
00:12.195290,-0.014
00:12.199200,-0.015
00:12.203110,-0.015
00:12.207020,-0.015
00:12.210930,-0.015
00:12.214840,-0.015
00:12.218750,-0.015
00:12.222660,-0.014
00:12.226570,-0.014
00:12.230480,-0.015
00:12.234390,-0.014
00:12.238300,-0.014
00:12.242210,-0.014
00:12.246120,-0.014
00:12.250030,-0.014
00:12.253940,-0.014
00:12.257850,-0.013000000000000001
00:12.261760,-0.014
00:12.265670,-0.015
00:12.269580,-0.014
00:12.273490,-0.014
00:12.277400,-0.014
00:12.281310,-0.013000000000000001
00:12.285220,-0.013000000000000001
00:12.289130,-0.012
00:12.293040,-0.013000000000000001
00:12.296950,-0.013000000000000001
00:12.300860,-0.014
00:12.304770,-0.014
00:12.308680,-0.013000000000000001
00:12.312590,-0.013000000000000001
00:12.316500,-0.014
00:12.320410,-0.015
00:12.324320,-0.014
00:12.328230,-0.014
00:12.332140,-0.013000000000000001
00:12.336050,-0.012
00:12.339960,-0.011
00:12.343870,-0.01
00:12.347780,-0.01
00:12.351690,-0.008
00:12.355600,-0.008
00:12.359510,-0.007
00:12.363420,-0.006
00:12.367330,-0.005
00:12.371240,-0.005
00:12.375150,-0.004
00:12.379060,0.0
00:12.382970,0.003
00:12.386880,0.004
00:12.390790,0.004
00:12.394700,0.003
00:12.398610,0.002
00:12.402520,0.001
00:12.406430,0.0
00:12.410340,0.0
00:12.414250,-0.001
00:12.418160,-0.004
00:12.422070,-0.007
00:12.425980,-0.008
00:12.429890,-0.008
00:12.433800,-0.01
00:12.437710,-0.012
00:12.441620,-0.014
00:12.445530,-0.015
00:12.449440,-0.016
00:12.453350,-0.016
00:12.457260,-0.016
00:12.461170,-0.017
00:12.465080,-0.018000000000000002
00:12.468990,-0.018000000000000002
00:12.472900,-0.017
00:12.476810,-0.018000000000000002
00:12.480720,-0.017
00:12.484630,-0.017
00:12.488540,-0.016
00:12.492450,-0.016
00:12.496360,-0.015
00:12.500270,-0.016
00:12.504180,-0.017
00:12.508090,-0.016
00:12.512000,-0.012
00:12.515910,-0.008
00:12.519820,0.002
00:12.523730,0.02
00:12.527640,0.049
00:12.531550,0.088
00:12.535460,0.131
00:12.539370,0.16
00:12.543280,0.162
00:12.547190,0.132
00:12.551100,0.074
00:12.555010,0.004
00:12.558920,-0.055
00:12.562830,-0.075
00:12.566740,-0.073
00:12.570650,-0.064
00:12.574560,-0.053
00:12.578470,-0.042
00:12.582380,-0.034
00:12.586290,-0.029
00:12.590200,-0.025
00:12.594110,-0.021
00:12.598020,-0.018000000000000002
00:12.601930,-0.015
00:12.605840,-0.013000000000000001
00:12.609750,-0.012
00:12.613660,-0.01
00:12.617570,-0.01
00:12.621480,-0.011
00:12.625390,-0.009000000000000001
00:12.629300,-0.008
00:12.633210,-0.008
00:12.637120,-0.008
00:12.641030,-0.007
00:12.644940,-0.007
00:12.648850,-0.007
00:12.652760,-0.005
00:12.656670,-0.005
00:12.660580,-0.004
00:12.664490,-0.003
00:12.668400,-0.003
00:12.672310,-0.001
00:12.676220,0.001
00:12.680130,0.001
00:12.684040,0.002
00:12.687950,0.005
00:12.691860,0.005
00:12.695770,0.005
00:12.699680,0.007
00:12.703590,0.008
00:12.707500,0.009000000000000001
00:12.711410,0.011
00:12.715320,0.014
00:12.719230,0.016
00:12.723140,0.018000000000000002
00:12.727050,0.021
00:12.730960,0.023
00:12.734870,0.025
00:12.738780,0.026000000000000002
00:12.742690,0.028
00:12.746600,0.03
00:12.750510,0.033
00:12.754420,0.034
00:12.758330,0.034
00:12.762240,0.035
00:12.766150,0.035
00:12.770060,0.036000000000000004
00:12.773970,0.037
00:12.777880,0.037
00:12.781790,0.037
00:12.785700,0.037
00:12.789610,0.035
00:12.793520,0.036000000000000004
00:12.797430,0.037
00:12.801340,0.036000000000000004
00:12.805250,0.034
00:12.809160,0.034
00:12.813070,0.033
00:12.816980,0.032
00:12.820890,0.031
00:12.824800,0.029
00:12.828710,0.027
00:12.832620,0.025
00:12.836530,0.024
00:12.840440,0.022
00:12.844350,0.019
00:12.848260,0.017
00:12.852170,0.016
00:12.856080,0.013000000000000001
00:12.859990,0.01
00:12.863900,0.009000000000000001
00:12.867810,0.008
00:12.871720,0.005
00:12.875630,0.004
00:12.879540,0.003
00:12.883450,0.002
00:12.887360,0.0
00:12.891270,-0.002
00:12.895180,-0.002
00:12.899090,-0.003
00:12.903000,-0.002
00:12.906910,-0.002
00:12.910820,-0.002
00:12.914730,-0.003
00:12.918640,-0.003
00:12.922550,-0.003
00:12.926460,-0.003
00:12.930370,-0.002
00:12.934280,-0.003
00:12.938190,-0.004
00:12.942100,-0.004
00:12.946010,-0.003
00:12.949920,-0.003
00:12.953830,-0.002
00:12.957740,-0.002
00:12.961650,-0.001
00:12.965560,-0.001
00:12.969470,-0.001
00:12.973380,0.0
00:12.977290,0.0
00:12.981200,0.0
00:12.985110,0.0
00:12.989020,0.0
00:12.992930,0.0
00:12.996840,0.0
00:13.000750,0.0
00:13.004660,-0.001
00:13.008570,-0.002
00:13.012480,-0.002
00:13.016390,-0.003
00:13.020300,-0.002
00:13.024210,-0.002
00:13.028120,-0.003
00:13.032030,-0.002
00:13.035940,-0.002
00:13.039850,-0.003
00:13.043760,-0.004
00:13.047670,-0.004
00:13.051580,-0.004
00:13.055490,-0.005
00:13.059400,-0.005
00:13.063310,-0.006
00:13.067220,-0.007
00:13.071130,-0.008
00:13.075040,-0.007
00:13.078950,-0.006
00:13.082860,-0.002
00:13.086770,0.007
00:13.090680,0.023
00:13.094590,0.049
00:13.098500,0.079
00:13.102410,0.11
00:13.106320,0.134
00:13.110230,0.149
00:13.114140,0.157
00:13.118050,0.155
00:13.121960,0.14100000000000001
00:13.125870,0.123
00:13.129780,0.10200000000000001
00:13.133690,0.078
00:13.137600,0.052000000000000005
00:13.141510,0.027
00:13.145420,0.007
00:13.149330,-0.006
00:13.153240,-0.014
00:13.157150,-0.021
00:13.161060,-0.026000000000000002
00:13.164970,-0.027
00:13.168880,-0.026000000000000002
00:13.172790,-0.024
00:13.176700,-0.022
00:13.180610,-0.019
00:13.184520,-0.015
00:13.188430,-0.013000000000000001
00:13.192340,-0.013000000000000001
00:13.196250,-0.012
00:13.200160,-0.012
00:13.204070,-0.011
00:13.207980,-0.011
00:13.211890,-0.011
00:13.215800,-0.009000000000000001
00:13.219710,-0.008
00:13.223620,-0.007
00:13.227530,-0.006
00:13.231440,-0.005
00:13.235350,-0.004
00:13.239260,-0.003
00:13.243170,-0.003
00:13.247080,0.0
00:13.250990,0.002
00:13.254900,0.002
00:13.258810,0.003
00:13.262720,0.005
00:13.266630,0.008
00:13.270540,0.01
00:13.274450,0.009000000000000001
00:13.278360,0.009000000000000001
00:13.282270,0.009000000000000001
00:13.286180,0.008
00:13.290090,0.008
00:13.294000,0.008
00:13.297910,0.009000000000000001
00:13.301820,0.009000000000000001
00:13.305730,0.008
00:13.309640,0.008
00:13.313550,0.006
00:13.317460,0.005
00:13.321370,0.004
00:13.325280,0.002
00:13.329190,0.0
00:13.333100,0.0
00:13.337010,0.0
00:13.340920,-0.001
00:13.344830,-0.001
00:13.348740,0.0
00:13.352650,0.0
00:13.356560,0.001
00:13.360470,0.001
00:13.364380,0.002
00:13.368290,0.003
00:13.372200,0.005
00:13.376110,0.005
00:13.380020,0.004
00:13.383930,0.005
00:13.387840,0.006
00:13.391750,0.006
00:13.395660,0.005
00:13.399570,0.005
00:13.403480,0.004
00:13.407390,0.003
00:13.411300,0.001
00:13.415210,0.0
00:13.419120,-0.001
00:13.423030,-0.002
00:13.426940,-0.003
00:13.430850,-0.004
00:13.434760,-0.004
00:13.438670,-0.005
00:13.442580,-0.005
00:13.446490,-0.006
00:13.450400,-0.006
00:13.454310,-0.006
00:13.458220,-0.007
00:13.462130,-0.008
00:13.466040,-0.008
00:13.469950,-0.008
00:13.473860,-0.008
00:13.477770,-0.008
00:13.481680,-0.008
00:13.485590,-0.007
00:13.489500,-0.006
00:13.493410,-0.007
00:13.497320,-0.007
00:13.501230,-0.006
00:13.505140,-0.006
00:13.509050,-0.006
00:13.512960,-0.006
00:13.516870,-0.007
00:13.520780,-0.006
00:13.524690,-0.006
00:13.528600,-0.007
00:13.532510,-0.007
00:13.536420,-0.008
00:13.540330,-0.008
00:13.544240,-0.007
00:13.548150,-0.008
00:13.552060,-0.007
00:13.555970,-0.008
00:13.559880,-0.009000000000000001
00:13.563790,-0.01
00:13.567700,-0.01
00:13.571610,-0.009000000000000001
00:13.575520,-0.01
00:13.579430,-0.01
00:13.583340,-0.01
00:13.587250,-0.01
00:13.591160,-0.01
00:13.595070,-0.009000000000000001
00:13.598980,-0.009000000000000001
00:13.602890,-0.009000000000000001
00:13.606800,-0.01
00:13.610710,-0.009000000000000001
00:13.614620,-0.01
00:13.618530,-0.01
00:13.622440,-0.009000000000000001
00:13.626350,-0.009000000000000001
00:13.630260,-0.011
00:13.634170,-0.011
00:13.638080,-0.011
00:13.641990,-0.011
00:13.645900,-0.011
00:13.649810,-0.011
00:13.653720,-0.011
00:13.657630,-0.01
00:13.661540,-0.01
00:13.665450,-0.011
00:13.669360,-0.011
00:13.673270,-0.011
00:13.677180,-0.01
00:13.681090,-0.009000000000000001
00:13.685000,-0.011
00:13.688910,-0.01
00:13.692820,-0.01
00:13.696730,-0.01
00:13.700640,-0.011
00:13.704550,-0.011
00:13.708460,-0.01
00:13.712370,-0.011
00:13.716280,-0.011
00:13.720190,-0.011
00:13.724100,-0.01
00:13.728010,-0.01
00:13.731920,-0.011
00:13.735830,-0.011
00:13.739740,-0.011
00:13.743650,-0.01
00:13.747560,-0.01
00:13.751470,-0.011
00:13.755380,-0.012
00:13.759290,-0.011
00:13.763200,-0.01
00:13.767110,-0.01
00:13.771020,-0.009000000000000001
00:13.774930,-0.01
00:13.778840,-0.009000000000000001
00:13.782750,-0.009000000000000001
00:13.786660,-0.011
00:13.790570,-0.011
00:13.794480,-0.011
00:13.798390,-0.01
00:13.802300,-0.009000000000000001
00:13.806210,-0.01
00:13.810120,-0.01
00:13.814030,-0.01
00:13.817940,-0.009000000000000001
00:13.821850,-0.009000000000000001
00:13.825760,-0.009000000000000001
00:13.829670,-0.008
00:13.833580,-0.008
00:13.837490,-0.009000000000000001
00:13.841400,-0.01
00:13.845310,-0.01
00:13.849220,-0.009000000000000001
00:13.853130,-0.009000000000000001
00:13.857040,-0.009000000000000001
00:13.860950,-0.009000000000000001
00:13.864860,-0.009000000000000001
00:13.868770,-0.009000000000000001
00:13.872680,-0.01
00:13.876590,-0.009000000000000001
00:13.880500,-0.009000000000000001
00:13.884410,-0.008
00:13.888320,-0.008
00:13.892230,-0.008
00:13.896140,-0.009000000000000001
00:13.900050,-0.009000000000000001
00:13.903960,-0.009000000000000001
00:13.907870,-0.009000000000000001
00:13.911780,-0.009000000000000001
00:13.915690,-0.008
00:13.919600,-0.009000000000000001
00:13.923510,-0.009000000000000001
00:13.927420,-0.008
00:13.931330,-0.009000000000000001
00:13.935240,-0.009000000000000001
00:13.939150,-0.009000000000000001
00:13.943060,-0.009000000000000001
00:13.946970,-0.01
00:13.950880,-0.01
00:13.954790,-0.01
00:13.958700,-0.01
00:13.962610,-0.009000000000000001
00:13.966520,-0.008
00:13.970430,-0.009000000000000001
00:13.974340,-0.009000000000000001
00:13.978250,-0.009000000000000001
00:13.982160,-0.008
00:13.986070,-0.008
00:13.989980,-0.008
00:13.993890,-0.009000000000000001
00:13.997800,-0.009000000000000001
00:14.001710,-0.008
00:14.005620,-0.008
00:14.009530,-0.01
00:14.013440,-0.009000000000000001
00:14.017350,-0.008
00:14.021260,-0.008
00:14.025170,-0.009000000000000001
00:14.029080,-0.009000000000000001
00:14.032990,-0.008
00:14.036900,-0.007
00:14.040810,-0.006
00:14.044720,-0.007
00:14.048630,-0.009000000000000001
00:14.052540,-0.009000000000000001
00:14.056450,-0.008
00:14.060360,-0.008
00:14.064270,-0.008
00:14.068180,-0.009000000000000001
00:14.072090,-0.009000000000000001
00:14.076000,-0.009000000000000001
00:14.079910,-0.01
00:14.083820,-0.009000000000000001
00:14.087730,-0.008
00:14.091640,-0.008
00:14.095550,-0.009000000000000001
00:14.099460,-0.009000000000000001
00:14.103370,-0.008
00:14.107280,-0.009000000000000001
00:14.111190,-0.009000000000000001
00:14.115100,-0.009000000000000001
00:14.119010,-0.008
00:14.122920,-0.008
00:14.126830,-0.008
00:14.130740,-0.008
00:14.134650,-0.008
00:14.138560,-0.009000000000000001
00:14.142470,-0.008
00:14.146380,-0.008
00:14.150290,-0.007
00:14.154200,-0.008
00:14.158110,-0.008
00:14.162020,-0.007
00:14.165930,-0.007
00:14.169840,-0.007
00:14.173750,-0.008
00:14.177660,-0.008
00:14.181570,-0.008
00:14.185480,-0.006
00:14.189390,-0.005
00:14.193300,-0.004
00:14.197210,-0.003
00:14.201120,-0.001
00:14.205030,-0.001
00:14.208940,-0.002
00:14.212850,0.0
00:14.216760,0.002
00:14.220670,0.003
00:14.224580,0.003
00:14.228490,0.005
00:14.232400,0.007
00:14.236310,0.008
00:14.240220,0.007
00:14.244130,0.007
00:14.248040,0.006
00:14.251950,0.006
00:14.255860,0.006
00:14.259770,0.006
00:14.263680,0.004
00:14.267590,0.003
00:14.271500,0.001
00:14.275410,0.0
00:14.279320,-0.001
00:14.283230,-0.002
00:14.287140,-0.004
00:14.291050,-0.008
00:14.294960,-0.009000000000000001
00:14.298870,-0.009000000000000001
00:14.302780,-0.01
00:14.306690,-0.011
00:14.310600,-0.011
00:14.314510,-0.01
00:14.318420,-0.01
00:14.322330,-0.011
00:14.326240,-0.011
00:14.330150,-0.011
00:14.334060,-0.011
00:14.337970,-0.011
00:14.341880,-0.011
00:14.345790,-0.012
00:14.349700,-0.011
00:14.353610,-0.011
00:14.357520,-0.011
00:14.361430,-0.008
00:14.365340,-0.004
00:14.369250,0.004
00:14.373160,0.018000000000000002
00:14.377070,0.041
00:14.380980,0.074
00:14.384890,0.11900000000000001
00:14.388800,0.158
00:14.392710,0.176
00:14.396620,0.16
00:14.400530,0.113
00:14.404440,0.047
00:14.408350,-0.019
00:14.412260,-0.059000000000000004
00:14.416170,-0.064
00:14.420080,-0.055
00:14.423990,-0.043000000000000003
00:14.427900,-0.032
00:14.431810,-0.027
00:14.435720,-0.024
00:14.439630,-0.021
00:14.443540,-0.019
00:14.447450,-0.017
00:14.451360,-0.013000000000000001
00:14.455270,-0.01
00:14.459180,-0.009000000000000001
00:14.463090,-0.009000000000000001
00:14.467000,-0.009000000000000001
00:14.470910,-0.008
00:14.474820,-0.007
00:14.478730,-0.007
00:14.482640,-0.006
00:14.486550,-0.005
00:14.490460,-0.004
00:14.494370,-0.004
00:14.498280,-0.004
00:14.502190,-0.003
00:14.506100,-0.003
00:14.510010,-0.002
00:14.513920,-0.002
00:14.517830,-0.001
00:14.521740,0.001
00:14.525650,0.002
00:14.529560,0.003
00:14.533470,0.004
00:14.537380,0.005
00:14.541290,0.006
00:14.545200,0.007
00:14.549110,0.008
00:14.553020,0.009000000000000001
00:14.556930,0.01
00:14.560840,0.013000000000000001
00:14.564750,0.015
00:14.568660,0.017
00:14.572570,0.018000000000000002
00:14.576480,0.02
00:14.580390,0.022
00:14.584300,0.025
00:14.588210,0.027
00:14.592120,0.029
00:14.596030,0.031
00:14.599940,0.032
00:14.603850,0.034
00:14.607760,0.036000000000000004
00:14.611670,0.037
00:14.615580,0.038
00:14.619490,0.04
00:14.623400,0.042
00:14.627310,0.043000000000000003
00:14.631220,0.044
00:14.635130,0.044
00:14.639040,0.045
00:14.642950,0.045
00:14.646860,0.045
00:14.650770,0.045
00:14.654680,0.046
00:14.658590,0.046
00:14.662500,0.045
00:14.666410,0.044
00:14.670320,0.044
00:14.674230,0.043000000000000003
00:14.678140,0.041
00:14.682050,0.04
00:14.685960,0.038
00:14.689870,0.037
00:14.693780,0.035
00:14.697690,0.033
00:14.701600,0.03
00:14.705510,0.028
00:14.709420,0.025
00:14.713330,0.021
00:14.717240,0.019
00:14.721150,0.017
00:14.725060,0.015
00:14.728970,0.013000000000000001
00:14.732880,0.01
00:14.736790,0.01
00:14.740700,0.009000000000000001
00:14.744610,0.007
00:14.748520,0.006
00:14.752430,0.005
00:14.756340,0.004
00:14.760250,0.003
00:14.764160,0.003
00:14.768070,0.001
00:14.771980,0.001
00:14.775890,0.001
00:14.779800,0.001
00:14.783710,0.001
00:14.787620,0.002
00:14.791530,0.002
00:14.795440,0.001
00:14.799350,0.001
00:14.803260,0.002
00:14.807170,0.002
00:14.811080,0.002
00:14.814990,0.002
00:14.818900,0.003
00:14.822810,0.003
00:14.826720,0.004
00:14.830630,0.003
00:14.834540,0.004
00:14.838450,0.004
00:14.842360,0.005
00:14.846270,0.005
00:14.850180,0.005
00:14.854090,0.005
00:14.858000,0.005
00:14.861910,0.004
00:14.865820,0.004
00:14.869730,0.004
00:14.873640,0.004
00:14.877550,0.004
00:14.881460,0.004
00:14.885370,0.004
00:14.889280,0.004
00:14.893190,0.003
00:14.897100,0.002
00:14.901010,0.0
00:14.904920,0.0
00:14.908830,-0.001
00:14.912740,-0.001
00:14.916650,-0.002
00:14.920560,-0.002
00:14.924470,-0.002
00:14.928380,-0.004
00:14.932290,-0.004
00:14.936200,-0.004
00:14.940110,-0.005
00:14.944020,-0.006
00:14.947930,-0.006
00:14.951840,-0.006
00:14.955750,-0.007
00:14.959660,-0.007
00:14.963570,-0.007
00:14.967480,-0.007
00:14.971390,-0.007
00:14.975300,-0.007
00:14.979210,-0.009000000000000001
00:14.983120,-0.009000000000000001
00:14.987030,-0.008
00:14.990940,-0.008
00:14.994850,-0.008
00:14.998760,-0.009000000000000001
00:15.002670,-0.01
00:15.006580,-0.009000000000000001
00:15.010490,-0.009000000000000001
00:15.014400,-0.01
00:15.018310,-0.009000000000000001
00:15.022220,-0.009000000000000001
00:15.026130,-0.01
00:15.030040,-0.01
00:15.033950,-0.01
00:15.037860,-0.01
00:15.041770,-0.01
00:15.045680,-0.01
00:15.049590,-0.01
00:15.053500,-0.01
00:15.057410,-0.01
00:15.061320,-0.009000000000000001
00:15.065230,-0.01
00:15.069140,-0.011
00:15.073050,-0.011
00:15.076960,-0.009000000000000001
00:15.080870,-0.01
00:15.084780,-0.012
00:15.088690,-0.011
00:15.092600,-0.01
00:15.096510,-0.01
00:15.100420,-0.01
00:15.104330,-0.011
00:15.108240,-0.012
00:15.112150,-0.012
00:15.116060,-0.011
00:15.119970,-0.01
00:15.123880,-0.01
00:15.127790,-0.01
00:15.131700,-0.01
00:15.135610,-0.01
00:15.139520,-0.009000000000000001
00:15.143430,-0.008
00:15.147340,-0.008
00:15.151250,-0.006
00:15.155160,-0.006
00:15.159070,-0.005
00:15.162980,-0.005
00:15.166890,-0.003
00:15.170800,-0.001
00:15.174710,0.0
00:15.178620,0.001
00:15.182530,0.004
00:15.186440,0.005
00:15.190350,0.004
00:15.194260,0.004
00:15.198170,0.005
00:15.202080,0.004
00:15.205990,0.004
00:15.209900,0.001
00:15.213810,0.0
00:15.217720,0.001
00:15.221630,0.0
00:15.225540,-0.002
00:15.229450,-0.004
00:15.233360,-0.005
00:15.237270,-0.006
00:15.241180,-0.008
00:15.245090,-0.01
00:15.249000,-0.011
00:15.252910,-0.012
00:15.256820,-0.013000000000000001
00:15.260730,-0.014
00:15.264640,-0.014
00:15.268550,-0.014
00:15.272460,-0.014
00:15.276370,-0.015
00:15.280280,-0.016
00:15.284190,-0.015
00:15.288100,-0.016
00:15.292010,-0.016
00:15.295920,-0.015
00:15.299830,-0.015
00:15.303740,-0.016
00:15.307650,-0.016
00:15.311560,-0.015
00:15.315470,-0.015
00:15.319380,-0.014
00:15.323290,-0.013000000000000001
00:15.327200,-0.008
00:15.331110,0.001
00:15.335020,0.015
00:15.338930,0.039
00:15.342840,0.073
00:15.346750,0.11900000000000001
00:15.350660,0.162
00:15.354570,0.183
00:15.358480,0.169
00:15.362390,0.11800000000000001
00:15.366300,0.048
00:15.370210,-0.021
00:15.374120,-0.064
00:15.378030,-0.073
00:15.381940,-0.065
00:15.385850,-0.051000000000000004
00:15.389760,-0.038
00:15.393670,-0.031
00:15.397580,-0.028
00:15.401490,-0.026000000000000002
00:15.405400,-0.022
00:15.409310,-0.018000000000000002
00:15.413220,-0.015
00:15.417130,-0.012
00:15.421040,-0.01
00:15.424950,-0.01
00:15.428860,-0.01
00:15.432770,-0.009000000000000001
00:15.436680,-0.008
00:15.440590,-0.007
00:15.444500,-0.005
00:15.448410,-0.004
00:15.452320,-0.004
00:15.456230,-0.004
00:15.460140,-0.003
00:15.464050,-0.002
00:15.467960,-0.002
00:15.471870,-0.001
00:15.475780,0.0
00:15.479690,0.001
00:15.483600,0.002
00:15.487510,0.002
00:15.491420,0.004
00:15.495330,0.005
00:15.499240,0.007
00:15.503150,0.009000000000000001
00:15.507060,0.01
00:15.510970,0.012
00:15.514880,0.013000000000000001
00:15.518790,0.015
00:15.522700,0.017
00:15.526610,0.019
00:15.530520,0.02
00:15.534430,0.022
00:15.538340,0.024
00:15.542250,0.026000000000000002
00:15.546160,0.029
00:15.550070,0.031
00:15.553980,0.033
00:15.557890,0.034
00:15.561800,0.036000000000000004
00:15.565710,0.038
00:15.569620,0.04
00:15.573530,0.041
00:15.577440,0.041
00:15.581350,0.041
00:15.585260,0.042
00:15.589170,0.044
00:15.593080,0.045
00:15.596990,0.044
00:15.600900,0.044
00:15.604810,0.043000000000000003
00:15.608720,0.043000000000000003
00:15.612630,0.042
00:15.616540,0.041
00:15.620450,0.041
00:15.624360,0.039
00:15.628270,0.037
00:15.632180,0.036000000000000004
00:15.636090,0.034
00:15.640000,0.032
00:15.643910,0.03
00:15.647820,0.027
00:15.651730,0.024
00:15.655640,0.022
00:15.659550,0.019
00:15.663460,0.016
00:15.667370,0.013000000000000001
00:15.671280,0.011
00:15.675190,0.009000000000000001
00:15.679100,0.005
00:15.683010,0.002
00:15.686920,0.001
00:15.690830,0.0
00:15.694740,-0.001
00:15.698650,-0.002
00:15.702560,-0.003
00:15.706470,-0.002
00:15.710380,-0.004
00:15.714290,-0.004
00:15.718200,-0.006
00:15.722110,-0.006
00:15.726020,-0.006
00:15.729930,-0.005
00:15.733840,-0.005
00:15.737750,-0.005
00:15.741660,-0.005
00:15.745570,-0.005
00:15.749480,-0.006
00:15.753390,-0.006
00:15.757300,-0.005
00:15.761210,-0.005
00:15.765120,-0.005
00:15.769030,-0.005
00:15.772940,-0.003
00:15.776850,-0.003
00:15.780760,-0.003
00:15.784670,-0.003
00:15.788580,-0.003
00:15.792490,-0.003
00:15.796400,-0.003
00:15.800310,-0.003
00:15.804220,-0.003
00:15.808130,-0.002
00:15.812040,-0.002
00:15.815950,-0.002
00:15.819860,-0.002
00:15.823770,-0.002
00:15.827680,-0.003
00:15.831590,-0.002
00:15.835500,-0.002
00:15.839410,-0.003
00:15.843320,-0.005
00:15.847230,-0.006
00:15.851140,-0.006
00:15.855050,-0.005
00:15.858960,-0.005
00:15.862870,-0.006
00:15.866780,-0.006
00:15.870690,-0.007
00:15.874600,-0.008
00:15.878510,-0.009000000000000001
00:15.882420,-0.01
00:15.886330,-0.01
00:15.890240,-0.009000000000000001
00:15.894150,-0.009000000000000001
00:15.898060,-0.009000000000000001
00:15.901970,-0.01
00:15.905880,-0.01
00:15.909790,-0.009000000000000001
00:15.913700,-0.011
00:15.917610,-0.012
00:15.921520,-0.012
00:15.925430,-0.012
00:15.929340,-0.011
00:15.933250,-0.011
00:15.937160,-0.013000000000000001
00:15.941070,-0.014
00:15.944980,-0.013000000000000001
00:15.948890,-0.014
00:15.952800,-0.013000000000000001
00:15.956710,-0.013000000000000001
00:15.960620,-0.014
00:15.964530,-0.013000000000000001
00:15.968440,-0.013000000000000001
00:15.972350,-0.012
00:15.976260,-0.012
00:15.980170,-0.012
00:15.984080,-0.012
00:15.987990,-0.012
00:15.991900,-0.013000000000000001
00:15.995810,-0.013000000000000001
00:15.999720,-0.013000000000000001
00:16.003630,-0.013000000000000001
00:16.007540,-0.012
00:16.011450,-0.013000000000000001
00:16.015360,-0.013000000000000001
00:16.019270,-0.012
00:16.023180,-0.011
00:16.027090,-0.011
00:16.031000,-0.012
00:16.034910,-0.013000000000000001
00:16.038820,-0.013000000000000001
00:16.042730,-0.013000000000000001
00:16.046640,-0.013000000000000001
00:16.050550,-0.013000000000000001
00:16.054460,-0.013000000000000001
00:16.058370,-0.012
00:16.062280,-0.012
00:16.066190,-0.012
00:16.070100,-0.012
00:16.074010,-0.013000000000000001
00:16.077920,-0.014
00:16.081830,-0.014
00:16.085740,-0.012
00:16.089650,-0.012
00:16.093560,-0.013000000000000001
00:16.097470,-0.012
00:16.101380,-0.012
00:16.105290,-0.012
00:16.109200,-0.012
00:16.113110,-0.012
00:16.117020,-0.012
00:16.120930,-0.012
00:16.124840,-0.012
00:16.128750,-0.012
00:16.132660,-0.013000000000000001
00:16.136570,-0.014
00:16.140480,-0.014
00:16.144390,-0.014
00:16.148300,-0.014
00:16.152210,-0.013000000000000001
00:16.156120,-0.013000000000000001
00:16.160030,-0.012
00:16.163940,-0.012
00:16.167850,-0.012
00:16.171760,-0.011
00:16.175670,-0.01
00:16.179580,-0.008
00:16.183490,-0.008
00:16.187400,-0.008
00:16.191310,-0.007
00:16.195220,-0.006
00:16.199130,-0.005
00:16.203040,-0.003
00:16.206950,0.001
00:16.210860,0.003
00:16.214770,0.004
00:16.218680,0.004
00:16.222590,0.002
00:16.226500,0.001
00:16.230410,0.0
00:16.234320,-0.001
00:16.238230,-0.001
00:16.242140,-0.003
00:16.246050,-0.004
00:16.249960,-0.006
00:16.253870,-0.007
00:16.257780,-0.011
00:16.261690,-0.014
00:16.265600,-0.014
00:16.269510,-0.014
00:16.273420,-0.017
00:16.277330,-0.016
00:16.281240,-0.015
00:16.285150,-0.015
00:16.289060,-0.015
00:16.292970,-0.016
00:16.296880,-0.016
00:16.300790,-0.016
00:16.304700,-0.016
00:16.308610,-0.016
00:16.312520,-0.016
00:16.316430,-0.017
00:16.320340,-0.017
00:16.324250,-0.016
00:16.328160,-0.016
00:16.332070,-0.016
00:16.335980,-0.015
00:16.339890,-0.011
00:16.343800,-0.005
00:16.347710,0.004
00:16.351620,0.023
00:16.355530,0.054
00:16.359440,0.096
00:16.363350,0.14200000000000002
00:16.367260,0.17400000000000002
00:16.371170,0.179
00:16.375080,0.148
00:16.378990,0.09
00:16.382900,0.019
00:16.386810,-0.047
00:16.390720,-0.075
00:16.394630,-0.07200000000000001
00:16.398540,-0.062
00:16.402450,-0.049
00:16.406360,-0.039
00:16.410270,-0.032
00:16.414180,-0.028
00:16.418090,-0.027
00:16.422000,-0.024
00:16.425910,-0.02
00:16.429820,-0.017
00:16.433730,-0.016
00:16.437640,-0.015
00:16.441550,-0.014
00:16.445460,-0.013000000000000001
00:16.449370,-0.012
00:16.453280,-0.011
00:16.457190,-0.01
00:16.461100,-0.01
00:16.465010,-0.01
00:16.468920,-0.01
00:16.472830,-0.009000000000000001
00:16.476740,-0.008
00:16.480650,-0.006
00:16.484560,-0.007
00:16.488470,-0.006
00:16.492380,-0.004
00:16.496290,-0.004
00:16.500200,-0.004
00:16.504110,-0.002
00:16.508020,-0.001
00:16.511930,-0.001
00:16.515840,0.0
00:16.519750,0.002
00:16.523660,0.004
00:16.527570,0.005
00:16.531480,0.008
00:16.535390,0.011
00:16.539300,0.012
00:16.543210,0.013000000000000001
00:16.547120,0.015
00:16.551030,0.017
00:16.554940,0.019
00:16.558850,0.021
00:16.562760,0.022
00:16.566670,0.025
00:16.570580,0.028
00:16.574490,0.029
00:16.578400,0.031
00:16.582310,0.033
00:16.586220,0.034
00:16.590130,0.036000000000000004
00:16.594040,0.036000000000000004
00:16.597950,0.036000000000000004
00:16.601860,0.036000000000000004
00:16.605770,0.037
00:16.609680,0.038
00:16.613590,0.038
00:16.617500,0.039
00:16.621410,0.039
00:16.625320,0.039
00:16.629230,0.038
00:16.633140,0.037
00:16.637050,0.035
00:16.640960,0.035
00:16.644870,0.033
00:16.648780,0.031
00:16.652690,0.029
00:16.656600,0.027
00:16.660510,0.025
00:16.664420,0.023
00:16.668330,0.02
00:16.672240,0.017
00:16.676150,0.015
00:16.680060,0.012
00:16.683970,0.01
00:16.687880,0.007
00:16.691790,0.005
00:16.695700,0.003
00:16.699610,0.001
00:16.703520,-0.001
00:16.707430,-0.001
00:16.711340,-0.002
00:16.715250,-0.004
00:16.719160,-0.006
00:16.723070,-0.006
00:16.726980,-0.006
00:16.730890,-0.006
00:16.734800,-0.005
00:16.738710,-0.006
00:16.742620,-0.007
00:16.746530,-0.006
00:16.750440,-0.007
00:16.754350,-0.006
00:16.758260,-0.006
00:16.762170,-0.007
00:16.766080,-0.007
00:16.769990,-0.007
00:16.773900,-0.007
00:16.777810,-0.007
00:16.781720,-0.006
00:16.785630,-0.006
00:16.789540,-0.006
00:16.793450,-0.005
00:16.797360,-0.006
00:16.801270,-0.005
00:16.805180,-0.006
00:16.809090,-0.006
00:16.813000,-0.004
00:16.816910,-0.005
00:16.820820,-0.006
00:16.824730,-0.005
00:16.828640,-0.006
00:16.832550,-0.006
00:16.836460,-0.005
00:16.840370,-0.005
00:16.844280,-0.006
00:16.848190,-0.006
00:16.852100,-0.007
00:16.856010,-0.006
00:16.859920,-0.007
00:16.863830,-0.008
00:16.867740,-0.009000000000000001
00:16.871650,-0.009000000000000001
00:16.875560,-0.008
00:16.879470,-0.008
00:16.883380,-0.009000000000000001
00:16.887290,-0.009000000000000001
00:16.891200,-0.009000000000000001
00:16.895110,-0.009000000000000001
00:16.899020,-0.011
00:16.902930,-0.012
00:16.906840,-0.013000000000000001
00:16.910750,-0.011
00:16.914660,-0.012
00:16.918570,-0.012
00:16.922480,-0.011
00:16.926390,-0.01
00:16.930300,-0.01
00:16.934210,-0.012
00:16.938120,-0.012
00:16.942030,-0.013000000000000001
00:16.945940,-0.013000000000000001
00:16.949850,-0.013000000000000001
00:16.953760,-0.014
00:16.957670,-0.013000000000000001
00:16.961580,-0.013000000000000001
00:16.965490,-0.015
00:16.969400,-0.015
00:16.973310,-0.013000000000000001
00:16.977220,-0.012
00:16.981130,-0.012
00:16.985040,-0.013000000000000001
00:16.988950,-0.014
00:16.992860,-0.015
00:16.996770,-0.015
00:17.000680,-0.014
00:17.004590,-0.014
00:17.008500,-0.014
00:17.012410,-0.014
00:17.016320,-0.014
00:17.020230,-0.014
00:17.024140,-0.012
00:17.028050,-0.012
00:17.031960,-0.011
00:17.035870,-0.01
00:17.039780,-0.009000000000000001
00:17.043690,-0.009000000000000001
00:17.047600,-0.009000000000000001
00:17.051510,-0.007
00:17.055420,-0.007
00:17.059330,-0.006
00:17.063240,-0.005
00:17.067150,-0.003
00:17.071060,-0.001
00:17.074970,0.0
00:17.078880,0.0
00:17.082790,0.0
00:17.086700,0.0
00:17.090610,-0.001
00:17.094520,-0.003
00:17.098430,-0.005
00:17.102340,-0.006
00:17.106250,-0.006
00:17.110160,-0.008
00:17.114070,-0.01
00:17.117980,-0.012
00:17.121890,-0.013000000000000001
00:17.125800,-0.016
00:17.129710,-0.018000000000000002
00:17.133620,-0.019
00:17.137530,-0.019
00:17.141440,-0.02
00:17.145350,-0.02
00:17.149260,-0.02
00:17.153170,-0.019
00:17.157080,-0.02
00:17.160990,-0.02
00:17.164900,-0.019
00:17.168810,-0.019
00:17.172720,-0.018000000000000002
00:17.176630,-0.018000000000000002
00:17.180540,-0.019
00:17.184450,-0.019
00:17.188360,-0.019
00:17.192270,-0.019
00:17.196180,-0.019
00:17.200090,-0.019
00:17.204000,-0.019
00:17.207910,-0.017
00:17.211820,-0.013000000000000001
00:17.215730,-0.007
00:17.219640,0.005
00:17.223550,0.025
00:17.227460,0.057
00:17.231370,0.098
00:17.235280,0.14100000000000001
00:17.239190,0.162
00:17.243100,0.156
00:17.247010,0.114
00:17.250920,0.052000000000000005
00:17.254830,-0.016
00:17.258740,-0.065
00:17.262650,-0.08
00:17.266560,-0.076
00:17.270470,-0.067
00:17.274380,-0.054
00:17.278290,-0.042
00:17.282200,-0.035
00:17.286110,-0.03
00:17.290020,-0.029
00:17.293930,-0.024
00:17.297840,-0.018000000000000002
00:17.301750,-0.016
00:17.305660,-0.014
00:17.309570,-0.014
00:17.313480,-0.014
00:17.317390,-0.014
00:17.321300,-0.012
00:17.325210,-0.011
00:17.329120,-0.009000000000000001
00:17.333030,-0.009000000000000001
00:17.336940,-0.01
00:17.340850,-0.009000000000000001
00:17.344760,-0.007
00:17.348670,-0.006
00:17.352580,-0.005
00:17.356490,-0.004
00:17.360400,-0.004
00:17.364310,-0.004
00:17.368220,-0.002
00:17.372130,0.0
00:17.376040,0.0
00:17.379950,0.001
00:17.383860,0.001
00:17.387770,0.002
00:17.391680,0.004
00:17.395590,0.005
00:17.399500,0.006
00:17.403410,0.009000000000000001
00:17.407320,0.013000000000000001
00:17.411230,0.015
00:17.415140,0.016
00:17.419050,0.017
00:17.422960,0.019
00:17.426870,0.019
00:17.430780,0.023
00:17.434690,0.026000000000000002
00:17.438600,0.028
00:17.442510,0.03
00:17.446420,0.031
00:17.450330,0.033
00:17.454240,0.035
00:17.458150,0.035
00:17.462060,0.036000000000000004
00:17.465970,0.035
00:17.469880,0.036000000000000004
00:17.473790,0.037
00:17.477700,0.037
00:17.481610,0.036000000000000004
00:17.485520,0.036000000000000004
00:17.489430,0.037
00:17.493340,0.037
00:17.497250,0.036000000000000004
00:17.501160,0.036000000000000004
00:17.505070,0.034
00:17.508980,0.033
00:17.512890,0.032
00:17.516800,0.03
00:17.520710,0.026000000000000002
00:17.524620,0.023
00:17.528530,0.021
00:17.532440,0.019
00:17.536350,0.016
00:17.540260,0.012
00:17.544170,0.01
00:17.548080,0.008
00:17.551990,0.005
00:17.555900,0.002
00:17.559810,0.001
00:17.563720,-0.001
00:17.567630,-0.002
00:17.571540,-0.003
00:17.575450,-0.004
00:17.579360,-0.006
00:17.583270,-0.008
00:17.587180,-0.008
00:17.591090,-0.01
00:17.595000,-0.012
00:17.598910,-0.011
00:17.602820,-0.01
00:17.606730,-0.011
00:17.610640,-0.011
00:17.614550,-0.01
00:17.618460,-0.01
00:17.622370,-0.01
00:17.626280,-0.01
00:17.630190,-0.01
00:17.634100,-0.011
00:17.638010,-0.011
00:17.641920,-0.011
00:17.645830,-0.009000000000000001
00:17.649740,-0.01
00:17.653650,-0.009000000000000001
00:17.657560,-0.008
00:17.661470,-0.008
00:17.665380,-0.008
00:17.669290,-0.006
00:17.673200,-0.005
00:17.677110,-0.006
00:17.681020,-0.005
00:17.684930,-0.006
00:17.688840,-0.006
00:17.692750,-0.007
00:17.696660,-0.006
00:17.700570,-0.005
00:17.704480,-0.006
00:17.708390,-0.006
00:17.712300,-0.007
00:17.716210,-0.008
00:17.720120,-0.009000000000000001
00:17.724030,-0.008
00:17.727940,-0.008
00:17.731850,-0.009000000000000001
00:17.735760,-0.009000000000000001
00:17.739670,-0.008
00:17.743580,-0.009000000000000001
00:17.747490,-0.008
00:17.751400,-0.009000000000000001
00:17.755310,-0.01
00:17.759220,-0.01
00:17.763130,-0.011
00:17.767040,-0.011
00:17.770950,-0.01
00:17.774860,-0.01
00:17.778770,-0.011
00:17.782680,-0.012
00:17.786590,-0.013000000000000001
00:17.790500,-0.013000000000000001
00:17.794410,-0.013000000000000001
00:17.798320,-0.013000000000000001
00:17.802230,-0.013000000000000001
00:17.806140,-0.013000000000000001
00:17.810050,-0.014
00:17.813960,-0.012
00:17.817870,-0.012
00:17.821780,-0.013000000000000001
00:17.825690,-0.013000000000000001
00:17.829600,-0.013000000000000001
00:17.833510,-0.014
00:17.837420,-0.014
00:17.841330,-0.014
00:17.845240,-0.014
00:17.849150,-0.014
00:17.853060,-0.014
00:17.856970,-0.015
00:17.860880,-0.015
00:17.864790,-0.014
00:17.868700,-0.013000000000000001
00:17.872610,-0.013000000000000001
00:17.876520,-0.014
00:17.880430,-0.013000000000000001
00:17.884340,-0.014
00:17.888250,-0.014
00:17.892160,-0.013000000000000001
00:17.896070,-0.013000000000000001
00:17.899980,-0.014
00:17.903890,-0.014
00:17.907800,-0.015
00:17.911710,-0.016
00:17.915620,-0.016
00:17.919530,-0.015
00:17.923440,-0.014
00:17.927350,-0.013000000000000001
00:17.931260,-0.013000000000000001
00:17.935170,-0.013000000000000001
00:17.939080,-0.014
00:17.942990,-0.014
00:17.946900,-0.011
00:17.950810,-0.01
00:17.954720,-0.009000000000000001
00:17.958630,-0.008
00:17.962540,-0.008
00:17.966450,-0.009000000000000001
00:17.970360,-0.009000000000000001
00:17.974270,-0.007
00:17.978180,-0.006
00:17.982090,-0.003
00:17.986000,-0.002
00:17.989910,0.0
00:17.993820,0.002
00:17.997730,0.002
00:18.001640,0.001
00:18.005550,0.001
00:18.009460,0.001
00:18.013370,-0.001
00:18.017280,-0.001
00:18.021190,-0.002
00:18.025100,-0.003
00:18.029010,-0.005
00:18.032920,-0.005
00:18.036830,-0.006
00:18.040740,-0.007
00:18.044650,-0.008
00:18.048560,-0.01
00:18.052470,-0.012
00:18.056380,-0.014
00:18.060290,-0.015
00:18.064200,-0.015
00:18.068110,-0.016
00:18.072020,-0.016
00:18.075930,-0.016
00:18.079840,-0.017
00:18.083750,-0.017
00:18.087660,-0.017
00:18.091570,-0.017
00:18.095480,-0.017
00:18.099390,-0.017
00:18.103300,-0.018000000000000002
00:18.107210,-0.017
00:18.111120,-0.017
00:18.115030,-0.017
00:18.118940,-0.017
00:18.122850,-0.018000000000000002
00:18.126760,-0.018000000000000002
00:18.130670,-0.015
00:18.134580,-0.012
00:18.138490,-0.007
00:18.142400,0.002
00:18.146310,0.018000000000000002
00:18.150220,0.042
00:18.154130,0.077
00:18.158040,0.154
00:18.161950,0.164
00:18.165860,0.14
00:18.169770,0.08600000000000001
00:18.173680,0.023
00:18.177590,-0.038
00:18.181500,-0.07
00:18.185410,-0.073
00:18.189320,-0.062
00:18.193230,-0.048
00:18.197140,-0.038
00:18.201050,-0.032
00:18.204960,-0.028
00:18.208870,-0.026000000000000002
00:18.212780,-0.023
00:18.216690,-0.019
00:18.220600,-0.015
00:18.224510,-0.015
00:18.228420,-0.013000000000000001
00:18.232330,-0.012
00:18.236240,-0.012
00:18.240150,-0.012
00:18.244060,-0.011
00:18.247970,-0.009000000000000001
00:18.251880,-0.009000000000000001
00:18.255790,-0.009000000000000001
00:18.259700,-0.008
00:18.263610,-0.006
00:18.267520,-0.005
00:18.271430,-0.006
00:18.275340,-0.005
00:18.279250,-0.004
00:18.283160,-0.004
00:18.287070,-0.003
00:18.290980,-0.002
00:18.294890,-0.001
00:18.298800,0.0
00:18.302710,0.001
00:18.306620,0.004
00:18.310530,0.004
00:18.314440,0.005
00:18.318350,0.006
00:18.322260,0.007
00:18.326170,0.01
00:18.330080,0.012
00:18.333990,0.013000000000000001
00:18.337900,0.014
00:18.341810,0.016
00:18.345720,0.019
00:18.349630,0.021
00:18.353540,0.023
00:18.357450,0.024
00:18.361360,0.026000000000000002
00:18.365270,0.029
00:18.369180,0.031
00:18.373090,0.033
00:18.377000,0.035
00:18.380910,0.037
00:18.384820,0.038
00:18.388730,0.038
00:18.392640,0.039
00:18.396550,0.039
00:18.400460,0.039
00:18.404370,0.039
00:18.408280,0.039
00:18.412190,0.039
00:18.416100,0.039
00:18.420010,0.039
00:18.423920,0.038
00:18.427830,0.037
00:18.431740,0.036000000000000004
00:18.435650,0.035
00:18.439560,0.033
00:18.443470,0.03
00:18.447380,0.027
00:18.451290,0.023
00:18.455200,0.02
00:18.459110,0.019
00:18.463020,0.017
00:18.466930,0.014
00:18.470840,0.011
00:18.474750,0.009000000000000001
00:18.478660,0.007
00:18.482570,0.004
00:18.486480,0.001
00:18.490390,0.0
00:18.494300,-0.001
00:18.498210,-0.001
00:18.502120,-0.002
00:18.506030,-0.003
00:18.509940,-0.004
00:18.513850,-0.005
00:18.517760,-0.006
00:18.521670,-0.007
00:18.525580,-0.007
00:18.529490,-0.007
00:18.533400,-0.008
00:18.537310,-0.009000000000000001
00:18.541220,-0.009000000000000001
00:18.545130,-0.008
00:18.549040,-0.007
00:18.552950,-0.008
00:18.556860,-0.009000000000000001
00:18.560770,-0.009000000000000001
00:18.564680,-0.008
00:18.568590,-0.008
00:18.572500,-0.008
00:18.576410,-0.007
00:18.580320,-0.007
00:18.584230,-0.006
00:18.588140,-0.007
00:18.592050,-0.006
00:18.595960,-0.005
00:18.599870,-0.005
00:18.603780,-0.005
00:18.607690,-0.005
00:18.611600,-0.004
00:18.615510,-0.002
00:18.619420,-0.002
00:18.623330,-0.003
00:18.627240,-0.003
00:18.631150,-0.002
00:18.635060,-0.002
00:18.638970,-0.003
00:18.642880,-0.003
00:18.646790,-0.004
00:18.650700,-0.005
00:18.654610,-0.005
00:18.658520,-0.005
00:18.662430,-0.005
00:18.666340,-0.005
00:18.670250,-0.006
00:18.674160,-0.006
00:18.678070,-0.007
00:18.681980,-0.008
00:18.685890,-0.009000000000000001
00:18.689800,-0.009000000000000001
00:18.693710,-0.008
00:18.697620,-0.007
00:18.701530,-0.009000000000000001
00:18.705440,-0.009000000000000001
00:18.709350,-0.009000000000000001
00:18.713260,-0.008
00:18.717170,-0.008
00:18.721080,-0.01
00:18.724990,-0.011
00:18.728900,-0.011
00:18.732810,-0.011
00:18.736720,-0.011
00:18.740630,-0.011
00:18.744540,-0.012
00:18.748450,-0.012
00:18.752360,-0.012
00:18.756270,-0.012
00:18.760180,-0.012
00:18.764090,-0.011
00:18.768000,-0.012
00:18.771910,-0.013000000000000001
00:18.775820,-0.013000000000000001
00:18.779730,-0.014
00:18.783640,-0.013000000000000001
00:18.787550,-0.012
00:18.791460,-0.013000000000000001
00:18.795370,-0.014
00:18.799280,-0.013000000000000001
00:18.803190,-0.014
00:18.807100,-0.015
00:18.811010,-0.012
00:18.814920,-0.012
00:18.818830,-0.013000000000000001
00:18.822740,-0.013000000000000001
00:18.826650,-0.013000000000000001
00:18.830560,-0.013000000000000001
00:18.834470,-0.012
00:18.838380,-0.012
00:18.842290,-0.012
00:18.846200,-0.013000000000000001
00:18.850110,-0.013000000000000001
00:18.854020,-0.013000000000000001
00:18.857930,-0.013000000000000001
00:18.861840,-0.014
00:18.865750,-0.013000000000000001
00:18.869660,-0.013000000000000001
00:18.873570,-0.014
00:18.877480,-0.015
00:18.881390,-0.014
00:18.885300,-0.014
00:18.889210,-0.014
00:18.893120,-0.014
00:18.897030,-0.014
00:18.900940,-0.014
00:18.904850,-0.013000000000000001
00:18.908760,-0.013000000000000001
00:18.912670,-0.014
00:18.916580,-0.014
00:18.920490,-0.014
00:18.924400,-0.014
00:18.928310,-0.014
00:18.932220,-0.014
00:18.936130,-0.015
00:18.940040,-0.015
00:18.943950,-0.014
00:18.947860,-0.013000000000000001
00:18.951770,-0.014
00:18.955680,-0.015
00:18.959590,-0.014
00:18.963500,-0.013000000000000001
00:18.967410,-0.012
00:18.971320,-0.012
00:18.975230,-0.014
00:18.979140,-0.014
00:18.983050,-0.013000000000000001
00:18.986960,-0.013000000000000001
00:18.990870,-0.013000000000000001
00:18.994780,-0.014
00:18.998690,-0.014
00:19.002600,-0.013000000000000001
00:19.006510,-0.013000000000000001
00:19.010420,-0.013000000000000001
00:19.014330,-0.014
00:19.018240,-0.015
00:19.022150,-0.013000000000000001
00:19.026060,-0.012
00:19.029970,-0.011
00:19.033880,-0.01
00:19.037790,-0.008
00:19.041700,-0.007
00:19.045610,-0.005
00:19.049520,-0.003
00:19.053430,-0.001
00:19.057340,0.001
00:19.061250,0.004
00:19.065160,0.004
00:19.069070,0.003
00:19.072980,0.002
00:19.076890,0.002
00:19.080800,0.001
00:19.084710,-0.001
00:19.088620,-0.002
00:19.092530,-0.002
00:19.096440,-0.004
00:19.100350,-0.005
00:19.104260,-0.007
00:19.108170,-0.008
00:19.112080,-0.009000000000000001
00:19.115990,-0.01
00:19.119900,-0.013000000000000001
00:19.123810,-0.015
00:19.127720,-0.015
00:19.131630,-0.016
00:19.135540,-0.016
00:19.139450,-0.016
00:19.143360,-0.016
00:19.147270,-0.016
00:19.151180,-0.017
00:19.155090,-0.017
00:19.159000,-0.016
00:19.162910,-0.016
00:19.166820,-0.017
00:19.170730,-0.018000000000000002
00:19.174640,-0.018000000000000002
00:19.178550,-0.017
00:19.182460,-0.018000000000000002
00:19.186370,-0.018000000000000002
00:19.190280,-0.015
00:19.194190,-0.012
00:19.198100,-0.006
00:19.202010,0.006
00:19.205920,0.027
00:19.209830,0.054
00:19.213740,0.094
00:19.217650,0.14
00:19.221560,0.17300000000000001
00:19.225470,0.17400000000000002
00:19.229380,0.14
00:19.233290,0.079
00:19.237200,0.008
00:19.241110,-0.049
00:19.245020,-0.067
00:19.248930,-0.053
00:19.252840,-0.041
00:19.256750,-0.034
00:19.260660,-0.03
00:19.264570,-0.028
00:19.268480,-0.025
00:19.272390,-0.021
00:19.276300,-0.019
00:19.280210,-0.017
00:19.284120,-0.015
00:19.288030,-0.013000000000000001
00:19.291940,-0.013000000000000001
00:19.295850,-0.012
00:19.299760,-0.011
00:19.303670,-0.011
00:19.307580,-0.011
00:19.311490,-0.01
00:19.315400,-0.01
00:19.319310,-0.009000000000000001
00:19.323220,-0.007
00:19.327130,-0.006
00:19.331040,-0.006
00:19.334950,-0.005
00:19.338860,-0.005
00:19.342770,-0.004
00:19.346680,-0.002
00:19.350590,-0.001
00:19.354500,0.0
00:19.358410,0.001
00:19.362320,0.001
00:19.366230,0.002
00:19.370140,0.004
00:19.374050,0.006
00:19.377960,0.008
00:19.381870,0.009000000000000001
00:19.385780,0.009000000000000001
00:19.389690,0.011
00:19.393600,0.014
00:19.397510,0.017
00:19.401420,0.017
00:19.405330,0.02
00:19.409240,0.022
00:19.413150,0.024
00:19.417060,0.026000000000000002
00:19.420970,0.028
00:19.424880,0.031
00:19.428790,0.033
00:19.432700,0.034
00:19.436610,0.035
00:19.440520,0.037
00:19.444430,0.039
00:19.448340,0.041
00:19.452250,0.042
00:19.456160,0.043000000000000003
00:19.460070,0.043000000000000003
00:19.463980,0.043000000000000003
00:19.467890,0.043000000000000003
00:19.471800,0.042
00:19.475710,0.042
00:19.479620,0.042
00:19.483530,0.041
00:19.487440,0.041
00:19.491350,0.041
00:19.495260,0.041
00:19.499170,0.038
00:19.503080,0.036000000000000004
00:19.506990,0.033
00:19.510900,0.031
00:19.514810,0.026000000000000002
00:19.518720,0.024
00:19.522630,0.02
00:19.526540,0.017
00:19.530450,0.014
00:19.534360,0.01
00:19.538270,0.007
00:19.542180,0.006
00:19.546090,0.005
00:19.550000,0.003
00:19.553910,0.001
00:19.557820,-0.001
00:19.561730,-0.003
00:19.565640,-0.003
00:19.569550,-0.004
00:19.573460,-0.005
00:19.577370,-0.005
00:19.581280,-0.005
00:19.585190,-0.006
00:19.589100,-0.006
00:19.593010,-0.006
00:19.596920,-0.008
00:19.600830,-0.008
00:19.604740,-0.008
00:19.608650,-0.009000000000000001
00:19.612560,-0.008
00:19.616470,-0.008
00:19.620380,-0.007
00:19.624290,-0.007
00:19.628200,-0.007
00:19.632110,-0.006
00:19.636020,-0.005
00:19.639930,-0.006
00:19.643840,-0.007
00:19.647750,-0.007
00:19.651660,-0.007
00:19.655570,-0.005
00:19.659480,-0.004
00:19.663390,-0.003
00:19.667300,-0.003
00:19.671210,-0.004
00:19.675120,-0.004
00:19.679030,-0.003
00:19.682940,-0.004
00:19.686850,-0.005
00:19.690760,-0.004
00:19.694670,-0.004
00:19.698580,-0.004
00:19.702490,-0.002
00:19.706400,-0.003
00:19.710310,-0.005
00:19.714220,-0.006
00:19.718130,-0.006
00:19.722040,-0.007
00:19.725950,-0.008
00:19.729860,-0.011
00:19.733770,-0.012
00:19.737680,-0.012
00:19.741590,-0.013000000000000001
00:19.745500,-0.013000000000000001
00:19.749410,-0.012
00:19.753320,-0.011
00:19.757230,-0.013000000000000001
00:19.761140,-0.014
00:19.765050,-0.015
00:19.768960,-0.015
00:19.772870,-0.015
00:19.776780,-0.014
00:19.780690,-0.014
00:19.784600,-0.015
00:19.788510,-0.015
00:19.792420,-0.013000000000000001
00:19.796330,-0.013000000000000001
00:19.800240,-0.012
00:19.804150,-0.012
00:19.808060,-0.012
00:19.811970,-0.012
00:19.815880,-0.013000000000000001
00:19.819790,-0.014
00:19.823700,-0.015
00:19.827610,-0.014
00:19.831520,-0.013000000000000001
00:19.835430,-0.014
00:19.839340,-0.014
00:19.843250,-0.012
00:19.847160,-0.007
00:19.851070,0.0
00:19.854980,0.015
00:19.858890,0.04
00:19.862800,0.075
00:19.866710,0.122
00:19.870620,0.167
00:19.874530,0.191
00:19.878440,0.18
00:19.882350,0.133
00:19.886260,0.066
00:19.890170,-0.008
00:19.894080,-0.063
00:19.897990,-0.077
00:19.901900,-0.068
00:19.905810,-0.052000000000000005
00:19.909720,-0.038
00:19.913630,-0.029
00:19.917540,-0.026000000000000002
00:19.921450,-0.023
00:19.925360,-0.02
00:19.929270,-0.016
00:19.933180,-0.013000000000000001
00:19.937090,-0.01
00:19.941000,-0.009000000000000001
00:19.944910,-0.008
00:19.948820,-0.007
00:19.952730,-0.006
00:19.956640,-0.006
00:19.960550,-0.006
00:19.964460,-0.005
00:19.968370,-0.004
00:19.972280,-0.003
00:19.976190,-0.004
00:19.980100,-0.003
00:19.984010,-0.002
00:19.987920,0.0
00:19.991830,0.0
00:19.995740,0.0
00:19.999650,0.0
00:20.003560,0.0
00:20.007470,0.001
00:20.011380,0.002
00:20.015290,0.002
00:20.019200,0.004
00:20.023110,0.007
00:20.027020,0.007
00:20.030930,0.009000000000000001
00:20.034840,0.011
00:20.038750,0.012
00:20.042660,0.014
00:20.046570,0.016
00:20.050480,0.018000000000000002
00:20.054390,0.02
00:20.058300,0.025
00:20.062210,0.027
00:20.066120,0.029
00:20.070030,0.031
00:20.073940,0.031
00:20.077850,0.034
00:20.081760,0.036000000000000004
00:20.085670,0.038
00:20.089580,0.04
00:20.093490,0.039
00:20.097400,0.04
00:20.101310,0.04
00:20.105220,0.04
00:20.109130,0.041
00:20.113040,0.04
00:20.116950,0.04
00:20.120860,0.04
00:20.124770,0.04
00:20.128680,0.04
00:20.132590,0.039
00:20.136500,0.038
00:20.140410,0.037
00:20.144320,0.035
00:20.148230,0.031
00:20.152140,0.028
00:20.156050,0.025
00:20.159960,0.022
00:20.163870,0.02
00:20.167780,0.017
00:20.171690,0.013000000000000001
00:20.175600,0.009000000000000001
00:20.179510,0.006
00:20.183420,0.004
00:20.187330,0.001
00:20.191240,-0.001
00:20.195150,-0.003
00:20.199060,-0.003
00:20.202970,-0.004
00:20.206880,-0.006
00:20.210790,-0.008
00:20.214700,-0.009000000000000001
00:20.218610,-0.009000000000000001
00:20.222520,-0.009000000000000001
00:20.226430,-0.009000000000000001
00:20.230340,-0.01
00:20.234250,-0.01
00:20.238160,-0.01
00:20.242070,-0.011
00:20.245980,-0.011
00:20.249890,-0.01
00:20.253800,-0.01
00:20.257710,-0.011
00:20.261620,-0.011
00:20.265530,-0.01
00:20.269440,-0.01
00:20.273350,-0.01
00:20.277260,-0.01
00:20.281170,-0.01
00:20.285080,-0.01
00:20.288990,-0.01
00:20.292900,-0.009000000000000001
00:20.296810,-0.009000000000000001
00:20.300720,-0.009000000000000001
00:20.304630,-0.009000000000000001
00:20.308540,-0.008
00:20.312450,-0.007
00:20.316360,-0.007
00:20.320270,-0.007
00:20.324180,-0.008
00:20.328090,-0.009000000000000001
00:20.332000,-0.009000000000000001
00:20.335910,-0.009000000000000001
00:20.339820,-0.008
00:20.343730,-0.009000000000000001
00:20.347640,-0.009000000000000001
00:20.351550,-0.009000000000000001
00:20.355460,-0.01
00:20.359370,-0.009000000000000001
00:20.363280,-0.01
00:20.367190,-0.011
00:20.371100,-0.011
00:20.375010,-0.011
00:20.378920,-0.011
00:20.382830,-0.011
00:20.386740,-0.012
00:20.390650,-0.013000000000000001
00:20.394560,-0.014
00:20.398470,-0.014
00:20.402380,-0.013000000000000001
00:20.406290,-0.013000000000000001
00:20.410200,-0.014
00:20.414110,-0.014
00:20.418020,-0.014
00:20.421930,-0.015
00:20.425840,-0.015
00:20.429750,-0.016
00:20.433660,-0.016
00:20.437570,-0.016
00:20.441480,-0.015
00:20.445390,-0.016
00:20.449300,-0.015
00:20.453210,-0.014
00:20.457120,-0.014
00:20.461030,-0.015
00:20.464940,-0.016
00:20.468850,-0.016
00:20.472760,-0.015
00:20.476670,-0.015
00:20.480580,-0.015
00:20.484490,-0.014
00:20.488400,-0.014
00:20.492310,-0.015
00:20.496220,-0.015
00:20.500130,-0.013000000000000001
00:20.504040,-0.015
00:20.507950,-0.016
00:20.511860,-0.016
00:20.515770,-0.016
00:20.519680,-0.016
00:20.523590,-0.017
00:20.527500,-0.016
00:20.531410,-0.016
00:20.535320,-0.016
00:20.539230,-0.015
00:20.543140,-0.016
00:20.547050,-0.016
00:20.550960,-0.016
00:20.554870,-0.015
00:20.558780,-0.015
00:20.562690,-0.015
00:20.566600,-0.016
00:20.570510,-0.016
00:20.574420,-0.016
00:20.578330,-0.016
00:20.582240,-0.016
00:20.586150,-0.015
00:20.590060,-0.016
00:20.593970,-0.017
00:20.597880,-0.018000000000000002
00:20.601790,-0.017
00:20.605700,-0.017
00:20.609610,-0.017
00:20.613520,-0.017
00:20.617430,-0.017
00:20.621340,-0.017
00:20.625250,-0.016
00:20.629160,-0.016
00:20.633070,-0.016
00:20.636980,-0.016
00:20.640890,-0.015
00:20.644800,-0.015
00:20.648710,-0.016
00:20.652620,-0.016
00:20.656530,-0.016
00:20.660440,-0.015
00:20.664350,-0.015
00:20.668260,-0.015
00:20.672170,-0.015
00:20.676080,-0.015
00:20.679990,-0.015
00:20.683900,-0.015
00:20.687810,-0.014
00:20.691720,-0.014
00:20.695630,-0.014
00:20.699540,-0.015
00:20.703450,-0.015
00:20.707360,-0.014
00:20.711270,-0.015
00:20.715180,-0.015
00:20.719090,-0.015
00:20.723000,-0.015
00:20.726910,-0.015
00:20.730820,-0.014
00:20.734730,-0.014
00:20.738640,-0.015
00:20.742550,-0.015
00:20.746460,-0.014
00:20.750370,-0.014
00:20.754280,-0.014
00:20.758190,-0.014
00:20.762100,-0.014
00:20.766010,-0.015
00:20.769920,-0.015
00:20.773830,-0.015
00:20.777740,-0.014
00:20.781650,-0.014
00:20.785560,-0.015
00:20.789470,-0.014
00:20.793380,-0.013000000000000001
00:20.797290,-0.014
00:20.801200,-0.014
00:20.805110,-0.015
00:20.809020,-0.015
00:20.812930,-0.015
00:20.816840,-0.015
00:20.820750,-0.015
00:20.824660,-0.015
00:20.828570,-0.014
00:20.832480,-0.014
00:20.836390,-0.014
00:20.840300,-0.014
00:20.844210,-0.012
00:20.848120,-0.013000000000000001
00:20.852030,-0.014
00:20.855940,-0.013000000000000001
00:20.859850,-0.014
00:20.863760,-0.014
00:20.867670,-0.012
00:20.871580,-0.012
00:20.875490,-0.014
00:20.879400,-0.012
00:20.883310,-0.012
00:20.887220,-0.013000000000000001
00:20.891130,-0.012
00:20.895040,-0.013000000000000001
00:20.898950,-0.013000000000000001
00:20.902860,-0.013000000000000001
00:20.906770,-0.014
00:20.910680,-0.014
00:20.914590,-0.013000000000000001
00:20.918500,-0.014
00:20.922410,-0.013000000000000001
00:20.926320,-0.013000000000000001
00:20.930230,-0.013000000000000001
00:20.934140,-0.012
00:20.938050,-0.013000000000000001
00:20.941960,-0.013000000000000001
00:20.945870,-0.013000000000000001
00:20.949780,-0.014
00:20.953690,-0.014
00:20.957600,-0.013000000000000001
00:20.961510,-0.012
00:20.965420,-0.012
00:20.969330,-0.012
00:20.973240,-0.012
00:20.977150,-0.012
00:20.981060,-0.012
00:20.984970,-0.013000000000000001
00:20.988880,-0.013000000000000001
00:20.992790,-0.013000000000000001
00:20.996700,-0.013000000000000001
00:21.000610,-0.014
00:21.004520,-0.013000000000000001
00:21.008430,-0.013000000000000001
00:21.012340,-0.012
00:21.016250,-0.012
00:21.020160,-0.013000000000000001
00:21.024070,-0.013000000000000001
00:21.027980,-0.013000000000000001
00:21.031890,-0.013000000000000001
00:21.035800,-0.013000000000000001
00:21.039710,-0.013000000000000001
00:21.043620,-0.013000000000000001
00:21.047530,-0.014
00:21.051440,-0.013000000000000001
00:21.055350,-0.012
00:21.059260,-0.012
00:21.063170,-0.013000000000000001
00:21.067080,-0.012
00:21.070990,-0.012
00:21.074900,-0.013000000000000001
00:21.078810,-0.012
00:21.082720,-0.013000000000000001
00:21.086630,-0.012
00:21.090540,-0.011
00:21.094450,-0.01
00:21.098360,-0.01
00:21.102270,-0.011
00:21.106180,-0.011
00:21.110090,-0.011
00:21.114000,-0.01
00:21.117910,-0.01
00:21.121820,-0.012
00:21.125730,-0.012
00:21.129640,-0.012
00:21.133550,-0.011
00:21.137460,-0.01
00:21.141370,-0.01
00:21.145280,-0.009000000000000001
00:21.149190,-0.008
00:21.153100,-0.006
00:21.157010,-0.004
00:21.160920,-0.001
00:21.164830,-0.002
00:21.168740,-0.004
00:21.172650,-0.003
00:21.176560,-0.001
00:21.180470,0.001
00:21.184380,0.002
00:21.188290,0.004
00:21.192200,0.005
00:21.196110,0.006
00:21.200020,0.007
00:21.203930,0.005
00:21.207840,0.0
00:21.211750,-0.003
00:21.215660,-0.005
00:21.219570,-0.006
00:21.223480,-0.006
00:21.227390,-0.008
00:21.231300,-0.01
00:21.235210,-0.01
00:21.239120,-0.011
00:21.243030,-0.013000000000000001
00:21.246940,-0.013000000000000001
00:21.250850,-0.013000000000000001
00:21.254760,-0.014
00:21.258670,-0.015
00:21.262580,-0.014
00:21.266490,-0.014
00:21.270400,-0.014
00:21.274310,-0.013000000000000001
00:21.278220,-0.013000000000000001
00:21.282130,-0.014
00:21.286040,-0.013000000000000001
00:21.289950,-0.014
00:21.293860,-0.015
00:21.297770,-0.014
00:21.301680,-0.014
00:21.305590,-0.013000000000000001
00:21.309500,-0.009000000000000001
00:21.313410,-0.003
00:21.317320,0.006
00:21.321230,0.023
00:21.325140,0.051000000000000004
00:21.329050,0.092
00:21.332960,0.136
00:21.336870,0.163
00:21.340780,0.161
00:21.344690,0.126
00:21.348600,0.067
00:21.352510,-0.003
00:21.356420,-0.057
00:21.360330,-0.074
00:21.364240,-0.07100000000000001
00:21.368150,-0.061
00:21.372060,-0.049
00:21.375970,-0.038
00:21.379880,-0.031
00:21.383790,-0.026000000000000002
00:21.387700,-0.023
00:21.391610,-0.019
00:21.395520,-0.016
00:21.399430,-0.013000000000000001
00:21.403340,-0.012
00:21.407250,-0.011
00:21.411160,-0.01
00:21.415070,-0.009000000000000001
00:21.418980,-0.007
00:21.422890,-0.007
00:21.426800,-0.008
00:21.430710,-0.008
00:21.434620,-0.006
00:21.438530,-0.006
00:21.442440,-0.006
00:21.446350,-0.006
00:21.450260,-0.005
00:21.454170,-0.003
00:21.458080,-0.003
00:21.461990,-0.003
00:21.465900,-0.002
00:21.469810,-0.001
00:21.473720,0.001
00:21.477630,0.002
00:21.481540,0.002
00:21.485450,0.003
00:21.489360,0.006
00:21.493270,0.006
00:21.497180,0.007
00:21.501090,0.01
00:21.505000,0.012
00:21.508910,0.013000000000000001
00:21.512820,0.014
00:21.516730,0.015
00:21.520640,0.018000000000000002
00:21.524550,0.02
00:21.528460,0.023
00:21.532370,0.025
00:21.536280,0.028
00:21.540190,0.03
00:21.544100,0.031
00:21.548010,0.033
00:21.551920,0.033
00:21.555830,0.034
00:21.559740,0.036000000000000004
00:21.563650,0.037
00:21.567560,0.038
00:21.571470,0.04
00:21.575380,0.041
00:21.579290,0.041
00:21.583200,0.042
00:21.587110,0.043000000000000003
00:21.591020,0.042
00:21.594930,0.043000000000000003
00:21.598840,0.042
00:21.602750,0.042
00:21.606660,0.042
00:21.610570,0.041
00:21.614480,0.039
00:21.618390,0.037
00:21.622300,0.037
00:21.626210,0.036000000000000004
00:21.630120,0.033
00:21.634030,0.032
00:21.637940,0.029
